OxySoft export of:	C:\Users\User\Desktop\Thesis\oxysoft_data\trial5
Export date:	2024/08/23 11:33:07
Start of measurement:	2024-08-23 11:19:49.696

Datafile sample rate:	50.00	Hz
Datafile duration:	776.520	s
Datafile total number of samples:	38826

Description:	

Optode-template:	OctaMon 2x4 channel
Optode distance (mm):	 35.00	35.00
Optode gradients (mm):	 -	-
DPF:	6.00	6.00

Device id:	16165
# Receivers:	2
# Light sources:	16
# ADC:	1

Light source wavelengths:
device	index	wavelength
1	1	850	nm
1	2	760	nm
1	3	850	nm
1	4	760	nm
1	5	850	nm
1	6	760	nm
1	7	850	nm
1	8	760	nm
1	9	850	nm
1	10	760	nm
1	11	850	nm
1	12	760	nm
1	13	850	nm
1	14	760	nm
1	15	850	nm
1	16	760	nm

Export sample rate:	50.00	Hz
Selected time span:	0	776.520
Selected time span (sample numbers):	0	38826


Legend:
Column	Trace (Measurement)
1	(Sample number)
2	Rx1-Tx1 O2Hb (trial5)
3	Rx1-Tx1 HHb (trial5)
4	Rx1-Tx2 O2Hb (trial5)
5	Rx1-Tx2 HHb (trial5)
6	Rx1-Tx3 O2Hb (trial5)
7	Rx1-Tx3 HHb (trial5)
8	Rx1-Tx4 O2Hb (trial5)
9	Rx1-Tx4 HHb (trial5)
10	Rx2-Tx5 O2Hb (trial5)
11	Rx2-Tx5 HHb (trial5)
12	Rx2-Tx6 O2Hb (trial5)
13	Rx2-Tx6 HHb (trial5)
14	Rx2-Tx7 O2Hb (trial5)
15	Rx2-Tx7 HHb (trial5)
16	Rx2-Tx8 O2Hb (trial5)
17	Rx2-Tx8 HHb (trial5)
18	(Event)


1	2	3	4	5	6	7	8	9	10	11	12	13	14	15	16	17	18
     0	54.9001	52.3600	-0.0004	 0.0000	74.0348	61.4189	68.3259	60.3903	79.0668	58.1153	-0.0004	 0.0000	94.9799	71.9871	93.8267	64.9348	
     1	54.9001	52.3600	-0.0004	 0.0000	74.0348	61.4189	68.3259	60.3903	79.0668	58.1153	-0.0004	 0.0000	94.9799	71.9871	93.8267	64.9348	
     2	 0.0320	-0.0472	-0.0004	 0.0000	-0.1260	-0.0110	-0.1307	 0.0262	-0.1132	-0.0299	-0.0004	 0.0000	-0.1541	-0.0150	-0.1975	-0.0418	
     3	 0.0320	-0.0472	-0.0004	 0.0000	-0.1260	-0.0110	-0.1307	 0.0262	-0.1132	-0.0299	-0.0004	 0.0000	-0.1541	-0.0150	-0.1975	-0.0418	
     4	 0.1819	-0.1018	-0.0004	 0.0000	-0.0988	-0.0209	-0.1179	 0.0073	-0.1621	-0.0334	-0.0004	 0.0000	-0.1749	-0.0145	-0.2047	-0.0463	
     5	 0.1499	-0.0546	-0.0004	 0.0000	-0.0643	-0.0263	-0.1307	 0.0262	-0.1621	-0.0334	-0.0004	 0.0000	-0.1958	-0.0140	-0.2320	-0.0364	
     6	 0.1819	-0.1018	-0.0004	 0.0000	-0.0988	-0.0209	-0.1307	 0.0262	-0.1621	-0.0334	-0.0004	 0.0000	-0.1966	-0.0279	-0.2328	-0.0503	
     7	 0.0320	-0.0472	-0.0004	 0.0000	-0.1196	-0.0204	-0.2141	 0.0282	-0.1894	-0.0235	-0.0004	 0.0000	-0.2103	-0.0230	-0.2465	-0.0454	
     8	-0.2039	-0.0324	-0.0004	 0.0000	-0.1886	-0.0095	-0.2904	 0.0346	-0.1621	-0.0334	-0.0004	 0.0000	-0.2175	-0.0274	-0.2465	-0.0454	
     9	-0.0540	-0.0870	-0.0004	 0.0000	-0.2095	-0.0090	-0.3321	 0.0355	-0.1766	-0.0424	-0.0004	 0.0000	-0.2247	-0.0319	-0.2537	-0.0498	
    10	 0.0960	-0.1416	-0.0004	 0.0000	-0.2440	-0.0036	-0.3738	 0.0365	-0.1766	-0.0424	-0.0004	 0.0000	-0.2456	-0.0314	-0.2401	-0.0548	
    11	 0.4498	-0.1637	-0.0004	 0.0000	-0.1886	-0.0095	-0.3193	 0.0167	-0.1975	-0.0419	-0.0004	 0.0000	-0.2665	-0.0309	-0.2537	-0.0498	
    12	 0.3318	-0.1564	-0.0004	 0.0000	-0.1886	-0.0095	-0.3129	 0.0072	-0.2464	-0.0454	-0.0004	 0.0000	-0.2673	-0.0449	-0.2682	-0.0588	
    13	 0.2999	-0.1092	-0.0004	 0.0000	-0.1605	-0.0055	-0.2239	-0.0181	-0.2464	-0.0454	-0.0004	 0.0000	-0.2882	-0.0444	-0.2890	-0.0583	
    14	 0.1499	-0.0546	-0.0004	 0.0000	-0.1822	-0.0189	-0.2584	-0.0126	-0.2336	-0.0643	-0.0004	 0.0000	-0.3090	-0.0439	-0.3026	-0.0533	
    15	 0.1819	-0.1018	-0.0004	 0.0000	-0.2031	-0.0185	-0.2456	-0.0315	-0.2055	-0.0603	-0.0004	 0.0000	-0.3162	-0.0484	-0.2962	-0.0628	
    16	 0.0640	-0.0944	-0.0004	 0.0000	-0.2312	-0.0225	-0.2873	-0.0305	-0.2336	-0.0643	-0.0004	 0.0000	-0.3371	-0.0479	-0.3171	-0.0623	
    17	-0.2039	-0.0324	-0.0004	 0.0000	-0.2737	-0.0354	-0.3354	-0.0201	-0.2609	-0.0543	-0.0004	 0.0000	-0.3580	-0.0474	-0.3171	-0.0623	
    18	 0.0320	-0.0472	-0.0004	 0.0000	-0.2737	-0.0354	-0.4308	 0.0146	-0.2818	-0.0538	-0.0004	 0.0000	-0.3724	-0.0563	-0.3107	-0.0717	
    19	 0.1499	-0.0546	-0.0004	 0.0000	-0.3082	-0.0300	-0.4598	-0.0033	-0.2898	-0.0722	-0.0004	 0.0000	-0.4069	-0.0509	-0.3316	-0.0712	
    20	 0.1179	-0.0074	-0.0004	 0.0000	-0.2737	-0.0354	-0.4726	 0.0156	-0.3532	-0.0847	-0.0004	 0.0000	-0.4214	-0.0598	-0.3597	-0.0752	
    21	-0.0000	 0.0000	-0.0004	 0.0000	-0.3082	-0.0300	-0.4598	-0.0033	-0.3613	-0.1031	-0.0004	 0.0000	-0.4358	-0.0688	-0.3669	-0.0797	
    22	 0.0320	-0.0472	-0.0004	 0.0000	-0.3572	-0.0335	-0.4598	-0.0033	-0.3886	-0.0932	-0.0004	 0.0000	-0.4639	-0.0728	-0.3878	-0.0792	
    23	 0.0320	-0.0472	-0.0004	 0.0000	-0.3845	-0.0235	-0.4598	-0.0033	-0.4230	-0.0877	-0.0004	 0.0000	-0.4920	-0.0768	-0.4086	-0.0787	
    24	-0.3858	 0.0694	-0.0004	 0.0000	-0.4534	-0.0126	-0.5777	 0.0041	-0.4294	-0.0783	-0.0004	 0.0000	-0.5057	-0.0718	-0.4159	-0.0832	
    25	-0.6081	 0.0792	-0.0004	 0.0000	-0.5024	-0.0161	-0.6130	-0.0044	-0.4503	-0.0778	-0.0004	 0.0000	-0.4993	-0.0813	-0.4222	-0.0738	
    26	-0.4901	 0.0718	-0.0004	 0.0000	-0.5024	-0.0161	-0.5585	-0.0242	-0.4014	-0.0743	-0.0004	 0.0000	-0.4984	-0.0673	-0.3942	-0.0698	
    27	-0.5221	 0.1190	-0.0004	 0.0000	-0.4679	-0.0216	-0.5232	-0.0158	-0.3805	-0.0748	-0.0004	 0.0000	-0.4703	-0.0634	-0.3661	-0.0658	
    28	-0.4498	 0.1637	-0.0004	 0.0000	-0.3781	-0.0330	-0.4598	-0.0033	-0.3805	-0.0748	-0.0004	 0.0000	-0.4350	-0.0549	-0.3516	-0.0568	
    29	-0.2999	 0.1092	-0.0004	 0.0000	-0.3291	-0.0295	-0.3129	 0.0072	-0.3452	-0.0663	-0.0004	 0.0000	-0.3925	-0.0419	-0.2962	-0.0628	
    30	-0.0000	 0.0000	-0.0004	 0.0000	-0.2865	-0.0165	-0.2077	 0.0187	-0.2881	-0.0444	-0.0004	 0.0000	-0.3363	-0.0340	-0.2609	-0.0543	
    31	-0.0000	 0.0000	-0.0004	 0.0000	-0.2312	-0.0225	-0.1026	 0.0302	-0.2247	-0.0319	-0.0004	 0.0000	-0.2873	-0.0305	-0.2192	-0.0553	
    32	 0.0320	-0.0472	-0.0004	 0.0000	-0.2031	-0.0185	-0.0545	 0.0198	-0.2039	-0.0324	-0.0004	 0.0000	-0.2384	-0.0269	-0.1911	-0.0513	
    33	 0.0320	-0.0472	-0.0004	 0.0000	-0.2031	-0.0185	 0.0000	-0.0000	-0.1621	-0.0334	-0.0004	 0.0000	-0.2030	-0.0185	-0.1630	-0.0473	
    34	 0.0859	 0.0398	-0.0004	 0.0000	-0.1069	-0.0393	 0.0290	 0.0179	-0.1413	-0.0339	-0.0004	 0.0000	-0.1749	-0.0145	-0.1285	-0.0527	
    35	 0.2679	-0.0620	-0.0004	 0.0000	-0.1069	-0.0393	 0.0418	-0.0010	-0.1685	-0.0240	-0.0004	 0.0000	-0.1541	-0.0150	-0.1349	-0.0433	
    36	 0.2679	-0.0620	-0.0004	 0.0000	-0.0579	-0.0358	 0.1244	-0.0169	-0.1621	-0.0334	-0.0004	 0.0000	-0.1469	-0.0105	-0.1349	-0.0433	
    37	 0.2679	-0.0620	-0.0004	 0.0000	-0.0643	-0.0263	 0.1116	 0.0020	-0.1413	-0.0339	-0.0004	 0.0000	-0.1396	-0.0060	-0.1213	-0.0483	
    38	 0.2359	-0.0148	-0.0004	 0.0000	-0.0362	-0.0223	 0.1597	-0.0084	-0.1541	-0.0150	-0.0004	 0.0000	-0.1124	-0.0159	-0.1213	-0.0483	
    39	 0.1179	-0.0074	-0.0004	 0.0000	-0.0771	-0.0075	 0.0707	 0.0169	-0.1051	-0.0115	-0.0004	 0.0000	-0.0915	-0.0164	-0.1141	-0.0438	
    40	 0.1179	-0.0074	-0.0004	 0.0000	-0.0362	-0.0223	 0.0707	 0.0169	-0.0843	-0.0120	-0.0004	 0.0000	-0.0843	-0.0119	-0.1068	-0.0393	
    41	 0.2679	-0.0620	-0.0004	 0.0000	-0.0771	-0.0075	 0.0162	 0.0367	-0.0289	-0.0179	-0.0004	 0.0000	-0.0770	-0.0075	-0.0860	-0.0398	
    42	 0.2679	-0.0620	-0.0004	 0.0000	-0.0643	-0.0263	 0.0162	 0.0367	-0.0353	-0.0085	-0.0004	 0.0000	-0.0834	 0.0020	-0.0860	-0.0398	
    43	 0.2679	-0.0620	-0.0004	 0.0000	-0.0362	-0.0223	 0.0162	 0.0367	-0.0698	-0.0030	-0.0004	 0.0000	-0.0834	 0.0020	-0.0860	-0.0398	
    44	 0.3858	-0.0694	-0.0004	 0.0000	-0.0345	 0.0055	 0.0515	 0.0452	-0.0570	-0.0219	-0.0004	 0.0000	-0.0770	-0.0075	-0.0932	-0.0443	
    45	 0.2359	-0.0148	-0.0004	 0.0000	-0.0345	 0.0055	 0.0515	 0.0452	-0.0097	-0.0462	-0.0004	 0.0000	-0.0907	-0.0025	-0.1068	-0.0393	
    46	 0.2679	-0.0620	-0.0004	 0.0000	-0.0409	 0.0149	 0.0643	 0.0263	-0.0506	-0.0314	-0.0004	 0.0000	-0.0907	-0.0025	-0.1141	-0.0438	
    47	-0.0000	 0.0000	-0.0004	 0.0000	-0.0618	 0.0154	 0.0162	 0.0367	-0.0506	-0.0314	-0.0004	 0.0000	-0.0907	-0.0025	-0.1277	-0.0388	
    48	 0.2999	-0.1092	-0.0004	 0.0000	-0.0345	 0.0055	 0.0290	 0.0179	-0.0506	-0.0314	-0.0004	 0.0000	-0.0907	-0.0025	-0.1205	-0.0343	
    49	 0.2999	-0.1092	-0.0004	 0.0000	-0.0554	 0.0060	-0.0128	 0.0188	-0.0779	-0.0214	-0.0004	 0.0000	-0.0843	-0.0119	-0.1205	-0.0343	
    50	 0.2999	-0.1092	-0.0004	 0.0000	-0.0426	-0.0129	 0.0000	-0.0000	-0.1196	-0.0205	-0.0004	 0.0000	-0.0979	-0.0070	-0.1277	-0.0388	
    51	 0.2999	-0.1092	-0.0004	 0.0000	-0.0153	-0.0228	 0.0064	-0.0095	-0.1541	-0.0150	-0.0004	 0.0000	-0.1051	-0.0115	-0.1413	-0.0339	
    52	 0.1499	-0.0546	-0.0004	 0.0000	-0.0281	-0.0039	-0.0481	 0.0104	-0.1541	-0.0150	-0.0004	 0.0000	-0.1051	-0.0115	-0.1413	-0.0339	
    53	 0.1499	-0.0546	-0.0004	 0.0000	-0.0426	-0.0129	-0.0481	 0.0104	-0.1413	-0.0339	-0.0004	 0.0000	-0.1260	-0.0110	-0.1485	-0.0383	
    54	-0.0000	 0.0000	-0.0004	 0.0000	-0.0835	 0.0020	-0.1435	 0.0451	-0.1132	-0.0299	-0.0004	 0.0000	-0.1332	-0.0155	-0.1485	-0.0383	
    55	 0.0640	-0.0944	-0.0004	 0.0000	-0.1052	-0.0114	-0.2269	 0.0470	-0.1004	-0.0488	-0.0004	 0.0000	-0.1405	-0.0199	-0.1558	-0.0428	
    56	 0.0640	-0.0944	-0.0004	 0.0000	-0.1260	-0.0110	-0.2141	 0.0282	-0.0731	-0.0587	-0.0004	 0.0000	-0.1405	-0.0199	-0.1422	-0.0478	
    57	 0.1819	-0.1018	-0.0004	 0.0000	-0.1605	-0.0055	-0.2623	 0.0386	-0.0731	-0.0587	-0.0004	 0.0000	-0.1541	-0.0150	-0.1285	-0.0527	
    58	 0.2999	-0.1092	-0.0004	 0.0000	-0.0988	-0.0209	-0.1950	-0.0002	-0.0667	-0.0681	-0.0004	 0.0000	-0.1613	-0.0194	-0.1422	-0.0478	
    59	 0.2679	-0.0620	-0.0004	 0.0000	-0.0643	-0.0263	-0.1532	-0.0011	-0.1221	-0.0622	-0.0004	 0.0000	-0.1685	-0.0239	-0.1422	-0.0478	
    60	 0.4178	-0.1166	-0.0004	 0.0000	-0.0771	-0.0075	-0.1051	-0.0115	-0.1430	-0.0617	-0.0004	 0.0000	-0.1830	-0.0329	-0.1494	-0.0523	
    61	 0.3858	-0.0694	-0.0004	 0.0000	-0.0643	-0.0263	-0.1596	 0.0083	-0.1574	-0.0707	-0.0004	 0.0000	-0.2039	-0.0324	-0.1702	-0.0518	
    62	 0.3318	-0.1564	-0.0004	 0.0000	-0.0924	-0.0303	-0.2495	 0.0197	-0.1847	-0.0608	-0.0004	 0.0000	-0.2247	-0.0319	-0.1839	-0.0468	
    63	 0.3318	-0.1564	-0.0004	 0.0000	-0.1005	-0.0487	-0.2776	 0.0157	-0.2055	-0.0603	-0.0004	 0.0000	-0.2256	-0.0458	-0.2047	-0.0463	
    64	 0.1499	-0.0546	-0.0004	 0.0000	-0.1630	-0.0473	-0.3129	 0.0072	-0.2464	-0.0454	-0.0004	 0.0000	-0.2464	-0.0453	-0.2047	-0.0463	
    65	 0.1499	-0.0546	-0.0004	 0.0000	-0.1566	-0.0567	-0.4091	 0.0280	-0.2609	-0.0543	-0.0004	 0.0000	-0.2673	-0.0449	-0.2184	-0.0414	
    66	-0.0000	 0.0000	-0.0004	 0.0000	-0.1839	-0.0468	-0.4308	 0.0146	-0.2818	-0.0538	-0.0004	 0.0000	-0.2882	-0.0444	-0.2256	-0.0458	
    67	-0.1179	 0.0074	-0.0004	 0.0000	-0.1839	-0.0468	-0.4308	 0.0146	-0.3179	-0.0762	-0.0004	 0.0000	-0.3162	-0.0484	-0.2401	-0.0548	
    68	-0.0000	 0.0000	-0.0004	 0.0000	-0.2248	-0.0319	-0.4308	 0.0146	-0.3452	-0.0663	-0.0004	 0.0000	-0.3371	-0.0479	-0.2673	-0.0449	
    69	-0.1499	 0.0546	-0.0004	 0.0000	-0.2457	-0.0314	-0.4726	 0.0156	-0.3724	-0.0564	-0.0004	 0.0000	-0.3516	-0.0568	-0.2882	-0.0444	
    70	-0.3858	 0.0694	-0.0004	 0.0000	-0.3355	-0.0200	-0.5015	-0.0023	-0.3852	-0.0375	-0.0004	 0.0000	-0.3724	-0.0563	-0.2890	-0.0583	
    71	-0.1179	 0.0074	-0.0004	 0.0000	-0.3163	-0.0483	-0.5360	 0.0031	-0.3724	-0.0564	-0.0004	 0.0000	-0.3933	-0.0559	-0.2890	-0.0583	
    72	-0.1179	 0.0074	-0.0004	 0.0000	-0.3099	-0.0578	-0.5232	-0.0158	-0.3388	-0.0757	-0.0004	 0.0000	-0.4078	-0.0648	-0.2890	-0.0583	
    73	-0.2679	 0.0620	-0.0004	 0.0000	-0.2826	-0.0677	-0.5232	-0.0158	-0.3805	-0.0748	-0.0004	 0.0000	-0.4150	-0.0693	-0.2890	-0.0583	
    74	-0.2679	 0.0620	-0.0004	 0.0000	-0.2481	-0.0732	-0.4052	-0.0231	-0.4014	-0.0743	-0.0004	 0.0000	-0.4214	-0.0598	-0.2890	-0.0583	
    75	-0.1179	 0.0074	-0.0004	 0.0000	-0.1992	-0.0696	-0.3129	 0.0072	-0.3741	-0.0842	-0.0004	 0.0000	-0.4142	-0.0554	-0.2682	-0.0588	
    76	-0.0000	 0.0000	-0.0004	 0.0000	-0.1775	-0.0562	-0.2687	 0.0480	-0.3388	-0.0757	-0.0004	 0.0000	-0.3925	-0.0419	-0.2401	-0.0548	
    77	-0.0000	 0.0000	-0.0004	 0.0000	-0.1566	-0.0567	-0.1980	 0.0649	-0.2545	-0.0638	-0.0004	 0.0000	-0.3226	-0.0389	-0.1975	-0.0418	
    78	 0.1179	-0.0074	-0.0004	 0.0000	-0.1005	-0.0487	-0.1346	 0.0774	-0.1847	-0.0608	-0.0004	 0.0000	-0.2729	-0.0215	-0.1413	-0.0339	
    79	 0.2679	-0.0620	-0.0004	 0.0000	-0.1069	-0.0393	-0.0384	 0.0566	-0.1349	-0.0433	-0.0004	 0.0000	-0.2030	-0.0185	-0.0860	-0.0398	
    80	 0.3858	-0.0694	-0.0004	 0.0000	-0.0579	-0.0358	 0.0643	 0.0263	-0.0859	-0.0398	-0.0004	 0.0000	-0.1469	-0.0105	-0.0506	-0.0313	
    81	 0.2679	-0.0620	-0.0004	 0.0000	-0.0362	-0.0223	 0.0515	 0.0452	-0.0779	-0.0214	-0.0004	 0.0000	-0.1115	-0.0020	-0.0362	-0.0224	
    82	 0.1499	-0.0546	-0.0004	 0.0000	-0.0426	-0.0129	 0.0796	 0.0492	-0.0651	-0.0403	-0.0004	 0.0000	-0.0907	-0.0025	-0.0225	-0.0273	
    83	 0.1499	-0.0546	-0.0004	 0.0000	-0.0281	-0.0039	 0.1149	 0.0577	-0.0506	-0.0314	-0.0004	 0.0000	-0.0626	 0.0015	-0.0217	-0.0134	
    84	 0.0640	-0.0944	-0.0004	 0.0000	-0.0554	 0.0060	 0.0668	 0.0681	-0.0097	-0.0462	-0.0004	 0.0000	-0.0481	 0.0104	-0.0081	-0.0184	
    85	 0.0960	-0.1416	-0.0004	 0.0000	-0.0426	-0.0129	 0.0387	 0.0641	 0.0384	-0.0566	-0.0004	 0.0000	-0.0345	 0.0055	-0.0009	-0.0139	
    86	 0.0960	-0.1416	-0.0004	 0.0000	-0.0362	-0.0223	-0.0030	 0.0651	 0.0746	-0.0343	-0.0004	 0.0000	-0.0064	 0.0095	-0.0000	 0.0000	
    87	 0.2459	-0.1962	-0.0004	 0.0000	-0.0234	-0.0412	-0.0448	 0.0660	 0.1018	-0.0442	-0.0004	 0.0000	 0.0072	 0.0045	 0.0272	-0.0099	
    88	 0.3318	-0.1564	-0.0004	 0.0000	-0.0089	-0.0323	 0.0098	 0.0462	 0.0954	-0.0347	-0.0004	 0.0000	 0.0145	 0.0090	 0.0345	-0.0054	
    89	 0.4498	-0.1637	-0.0004	 0.0000	 0.0400	-0.0288	 0.0515	 0.0452	 0.0682	-0.0248	-0.0004	 0.0000	 0.0145	 0.0090	 0.0345	-0.0054	
    90	 0.4178	-0.1166	-0.0004	 0.0000	 0.0681	-0.0248	 0.1341	 0.0293	 0.0064	-0.0095	-0.0004	 0.0000	 0.0145	 0.0090	 0.0409	-0.0149	
    91	 0.4178	-0.1166	-0.0004	 0.0000	 0.0681	-0.0248	 0.1213	 0.0482	 0.0409	-0.0149	-0.0004	 0.0000	 0.0281	 0.0040	 0.0409	-0.0149	
    92	 0.2679	-0.0620	-0.0004	 0.0000	 0.0681	-0.0248	 0.1886	 0.0095	 0.0554	-0.0059	-0.0004	 0.0000	 0.0353	 0.0085	 0.0481	-0.0104	
    93	 0.1499	-0.0546	-0.0004	 0.0000	 0.0272	-0.0099	 0.0924	 0.0303	 0.0826	-0.0159	-0.0004	 0.0000	 0.0426	 0.0130	 0.0617	-0.0154	
    94	 0.1499	-0.0546	-0.0004	 0.0000	 0.0272	-0.0099	 0.0643	 0.0263	 0.0826	-0.0159	-0.0004	 0.0000	 0.0562	 0.0080	 0.0617	-0.0154	
    95	 0.2679	-0.0620	-0.0004	 0.0000	 0.0272	-0.0099	 0.0162	 0.0367	 0.0762	-0.0064	-0.0004	 0.0000	 0.0634	 0.0125	 0.0690	-0.0109	
    96	 0.2679	-0.0620	-0.0004	 0.0000	 0.0272	-0.0099	-0.0256	 0.0377	 0.0762	-0.0064	-0.0004	 0.0000	 0.0698	 0.0030	 0.0690	-0.0109	
    97	 0.1179	-0.0074	-0.0004	 0.0000	 0.0272	-0.0099	-0.0256	 0.0377	 0.0826	-0.0159	-0.0004	 0.0000	 0.0562	 0.0080	 0.0690	-0.0109	
    98	 0.1499	-0.0546	-0.0004	 0.0000	 0.0272	-0.0099	-0.0128	 0.0188	 0.0682	-0.0248	-0.0004	 0.0000	 0.0353	 0.0085	 0.0417	-0.0010	
    99	 0.1179	-0.0074	-0.0004	 0.0000	 0.0144	 0.0090	 0.0290	 0.0179	 0.0473	-0.0243	-0.0004	 0.0000	 0.0145	 0.0090	 0.0345	-0.0054	
   100	 0.1499	-0.0546	-0.0004	 0.0000	 0.0272	-0.0099	 0.0418	-0.0010	 0.0064	-0.0095	-0.0004	 0.0000	 0.0072	 0.0045	 0.0272	-0.0099	
   101	-0.0000	 0.0000	-0.0004	 0.0000	-0.0000	 0.0000	 0.0000	-0.0000	 0.0000	-0.0000	-0.0004	 0.0000	 0.0000	 0.0000	-0.0000	 0.0000	
   102	-0.1179	 0.0074	-0.0004	 0.0000	-0.0554	 0.0060	-0.1026	 0.0302	 0.0064	-0.0095	-0.0004	 0.0000	-0.0209	 0.0005	 0.0128	-0.0189	
   103	-0.0000	 0.0000	-0.0004	 0.0000	-0.0771	-0.0075	-0.1307	 0.0262	 0.0064	-0.0095	-0.0004	 0.0000	-0.0209	 0.0005	 0.0128	-0.0189	
   104	 0.1179	-0.0074	-0.0004	 0.0000	-0.0362	-0.0223	-0.1026	 0.0302	-0.0353	-0.0085	-0.0004	 0.0000	-0.0281	-0.0040	 0.0128	-0.0189	
   105	 0.0859	 0.0398	-0.0004	 0.0000	-0.0089	-0.0323	-0.1435	 0.0451	-0.0698	-0.0030	-0.0004	 0.0000	-0.0489	-0.0035	-0.0009	-0.0139	
   106	 0.0859	 0.0398	-0.0004	 0.0000	 0.0528	-0.0476	-0.1090	 0.0396	-0.1115	-0.0021	-0.0004	 0.0000	-0.0562	-0.0080	-0.0145	-0.0089	
   107	 0.0859	 0.0398	-0.0004	 0.0000	 0.0256	-0.0377	-0.1026	 0.0302	-0.1196	-0.0205	-0.0004	 0.0000	-0.0770	-0.0075	-0.0353	-0.0085	
   108	-0.0320	 0.0472	-0.0004	 0.0000	-0.0089	-0.0323	-0.1307	 0.0262	-0.1132	-0.0299	-0.0004	 0.0000	-0.0843	-0.0119	-0.0289	-0.0179	
   109	-0.1499	 0.0546	-0.0004	 0.0000	-0.0170	-0.0507	-0.2269	 0.0470	-0.1132	-0.0299	-0.0004	 0.0000	-0.1051	-0.0115	-0.0498	-0.0174	
   110	-0.1179	 0.0074	-0.0004	 0.0000	-0.0796	-0.0492	-0.2141	 0.0282	-0.1132	-0.0299	-0.0004	 0.0000	-0.1124	-0.0159	-0.0570	-0.0219	
   111	-0.2039	-0.0324	-0.0004	 0.0000	-0.1630	-0.0473	-0.2904	 0.0346	-0.1413	-0.0339	-0.0004	 0.0000	-0.1332	-0.0155	-0.0570	-0.0219	
   112	 0.0640	-0.0944	-0.0004	 0.0000	-0.1221	-0.0621	-0.2495	 0.0197	-0.0859	-0.0398	-0.0004	 0.0000	-0.1405	-0.0199	-0.0434	-0.0268	
   113	 0.0640	-0.0944	-0.0004	 0.0000	-0.1221	-0.0621	-0.2776	 0.0157	-0.1004	-0.0488	-0.0004	 0.0000	-0.1613	-0.0194	-0.0570	-0.0219	
   114	 0.1819	-0.1018	-0.0004	 0.0000	-0.0941	-0.0582	-0.2367	 0.0008	-0.1349	-0.0433	-0.0004	 0.0000	-0.1822	-0.0190	-0.0570	-0.0219	
   115	 0.2999	-0.1092	-0.0004	 0.0000	-0.0732	-0.0586	-0.1822	-0.0190	-0.1975	-0.0419	-0.0004	 0.0000	-0.2103	-0.0230	-0.0779	-0.0214	
   116	 0.1499	-0.0546	-0.0004	 0.0000	-0.0941	-0.0582	-0.2239	-0.0181	-0.2119	-0.0508	-0.0004	 0.0000	-0.2247	-0.0319	-0.0988	-0.0209	
   117	 0.1179	-0.0074	-0.0004	 0.0000	-0.1221	-0.0621	-0.2239	-0.0181	-0.2528	-0.0359	-0.0004	 0.0000	-0.2528	-0.0359	-0.1132	-0.0299	
   118	-0.1499	 0.0546	-0.0004	 0.0000	-0.1775	-0.0562	-0.2873	-0.0305	-0.2528	-0.0359	-0.0004	 0.0000	-0.2737	-0.0354	-0.1277	-0.0388	
   119	-0.2679	 0.0620	-0.0004	 0.0000	-0.2056	-0.0602	-0.3354	-0.0201	-0.2528	-0.0359	-0.0004	 0.0000	-0.2745	-0.0493	-0.1413	-0.0339	
   120	-0.2679	 0.0620	-0.0004	 0.0000	-0.2673	-0.0448	-0.3771	-0.0191	-0.3009	-0.0255	-0.0004	 0.0000	-0.2954	-0.0488	-0.1422	-0.0478	
   121	-0.0000	 0.0000	-0.0004	 0.0000	-0.2265	-0.0597	-0.3354	-0.0201	-0.3009	-0.0255	-0.0004	 0.0000	-0.3026	-0.0533	-0.1285	-0.0527	
   122	 0.0320	-0.0472	-0.0004	 0.0000	-0.2673	-0.0448	-0.2873	-0.0305	-0.3009	-0.0255	-0.0004	 0.0000	-0.3026	-0.0533	-0.1285	-0.0527	
   123	 0.0320	-0.0472	-0.0004	 0.0000	-0.2184	-0.0413	-0.1694	-0.0379	-0.3282	-0.0156	-0.0004	 0.0000	-0.2954	-0.0488	-0.1277	-0.0388	
   124	 0.0640	-0.0944	-0.0004	 0.0000	-0.1903	-0.0373	-0.0987	-0.0210	-0.3009	-0.0255	-0.0004	 0.0000	-0.2673	-0.0449	-0.1068	-0.0393	
   125	 0.1819	-0.1018	-0.0004	 0.0000	-0.1005	-0.0487	 0.0064	-0.0095	-0.2656	-0.0171	-0.0004	 0.0000	-0.2247	-0.0319	-0.0579	-0.0358	
   126	 0.1819	-0.1018	-0.0004	 0.0000	-0.0796	-0.0492	 0.0418	-0.0010	-0.2086	 0.0048	-0.0004	 0.0000	-0.1685	-0.0239	-0.0161	-0.0368	
   127	 0.0320	-0.0472	-0.0004	 0.0000	-0.0924	-0.0303	 0.0290	 0.0179	-0.1115	-0.0021	-0.0004	 0.0000	-0.1260	-0.0110	 0.0192	-0.0283	
   128	-0.0000	 0.0000	-0.0004	 0.0000	-0.0579	-0.0358	 0.0643	 0.0263	-0.0762	 0.0064	-0.0004	 0.0000	-0.0770	-0.0075	 0.0681	-0.0248	
   129	 0.1179	-0.0074	-0.0004	 0.0000	-0.0362	-0.0223	 0.0924	 0.0303	-0.0208	 0.0005	-0.0004	 0.0000	-0.0417	 0.0010	 0.0962	-0.0208	
   130	 0.0859	 0.0398	-0.0004	 0.0000	 0.0256	-0.0377	 0.0924	 0.0303	 0.0064	-0.0095	-0.0004	 0.0000	-0.0136	 0.0050	 0.1107	-0.0119	
   131	-0.0640	 0.0944	-0.0004	 0.0000	 0.0400	-0.0288	 0.0796	 0.0492	 0.0192	-0.0283	-0.0004	 0.0000	 0.0072	 0.0045	 0.1107	-0.0119	
   132	-0.0640	 0.0944	-0.0004	 0.0000	 0.0681	-0.0248	 0.1213	 0.0482	-0.0081	-0.0184	-0.0004	 0.0000	 0.0281	 0.0040	 0.1107	-0.0119	
   133	-0.0960	 0.1416	-0.0004	 0.0000	 0.0681	-0.0248	 0.1694	 0.0378	-0.0017	-0.0278	-0.0004	 0.0000	 0.0217	 0.0135	 0.1107	-0.0119	
   134	 0.0859	 0.0398	-0.0004	 0.0000	 0.0681	-0.0248	 0.1694	 0.0378	 0.0192	-0.0283	-0.0004	 0.0000	 0.0353	 0.0085	 0.1107	-0.0119	
   135	 0.0859	 0.0398	-0.0004	 0.0000	 0.0681	-0.0248	 0.1694	 0.0378	 0.0682	-0.0248	-0.0004	 0.0000	 0.0426	 0.0130	 0.1315	-0.0123	
   136	 0.2359	-0.0148	-0.0004	 0.0000	 0.0272	-0.0099	 0.1694	 0.0378	 0.0554	-0.0059	-0.0004	 0.0000	 0.0498	 0.0175	 0.1452	-0.0173	
   137	 0.3858	-0.0694	-0.0004	 0.0000	 0.0681	-0.0248	 0.1149	 0.0577	 0.0762	-0.0064	-0.0004	 0.0000	 0.0570	 0.0219	 0.1733	-0.0133	
   138	 0.3858	-0.0694	-0.0004	 0.0000	 0.0681	-0.0248	 0.1149	 0.0577	 0.0779	 0.0214	-0.0004	 0.0000	 0.0643	 0.0264	 0.1733	-0.0133	
   139	 0.5037	-0.0767	-0.0004	 0.0000	 0.1171	-0.0213	 0.1566	 0.0567	 0.0634	 0.0124	-0.0004	 0.0000	 0.0779	 0.0214	 0.1733	-0.0133	
   140	 0.3218	 0.0250	-0.0004	 0.0000	 0.1580	-0.0361	 0.1984	 0.0557	 0.0362	 0.0224	-0.0004	 0.0000	 0.0779	 0.0214	 0.1797	-0.0227	
   141	 0.3218	 0.0250	-0.0004	 0.0000	 0.1107	-0.0118	 0.1984	 0.0557	 0.0634	 0.0124	-0.0004	 0.0000	 0.0779	 0.0214	 0.1797	-0.0227	
   142	 0.2039	 0.0324	-0.0004	 0.0000	 0.1107	-0.0118	 0.2111	 0.0368	 0.0779	 0.0214	-0.0004	 0.0000	 0.0915	 0.0165	 0.1797	-0.0227	
   143	 0.1179	-0.0074	-0.0004	 0.0000	 0.0898	-0.0113	 0.1213	 0.0482	 0.0779	 0.0214	-0.0004	 0.0000	 0.0915	 0.0165	 0.1797	-0.0227	
   144	-0.0000	 0.0000	-0.0004	 0.0000	 0.0553	-0.0059	 0.0515	 0.0452	 0.0779	 0.0214	-0.0004	 0.0000	 0.0979	 0.0070	 0.1724	-0.0272	
   145	-0.1179	 0.0074	-0.0004	 0.0000	 0.0064	-0.0094	 0.0098	 0.0462	 0.0634	 0.0124	-0.0004	 0.0000	 0.0843	 0.0120	 0.1724	-0.0272	
   146	 0.0320	-0.0472	-0.0004	 0.0000	 0.0064	-0.0094	-0.0384	 0.0566	 0.0490	 0.0035	-0.0004	 0.0000	 0.0771	 0.0075	 0.1588	-0.0223	
   147	 0.0320	-0.0472	-0.0004	 0.0000	 0.0128	-0.0188	-0.0384	 0.0566	 0.0281	 0.0040	-0.0004	 0.0000	 0.0562	 0.0080	 0.1452	-0.0173	
   148	-0.0000	 0.0000	-0.0004	 0.0000	 0.0336	-0.0193	 0.0098	 0.0462	 0.0064	-0.0095	-0.0004	 0.0000	 0.0353	 0.0085	 0.1243	-0.0168	
   149	 0.1179	-0.0074	-0.0004	 0.0000	 0.0272	-0.0099	 0.1052	 0.0114	-0.0208	 0.0005	-0.0004	 0.0000	 0.0281	 0.0040	 0.0971	-0.0069	
   150	 0.0859	 0.0398	-0.0004	 0.0000	 0.0144	 0.0090	 0.1052	 0.0114	-0.0081	-0.0184	-0.0004	 0.0000	 0.0209	-0.0005	 0.1035	-0.0163	
   151	-0.0320	 0.0472	-0.0004	 0.0000	-0.0345	 0.0055	 0.0418	-0.0010	-0.0208	 0.0005	-0.0004	 0.0000	 0.0136	-0.0049	 0.0898	-0.0114	
   152	-0.2679	 0.0620	-0.0004	 0.0000	-0.0554	 0.0060	-0.0481	 0.0104	-0.0481	 0.0104	-0.0004	 0.0000	 0.0000	 0.0000	 0.0826	-0.0158	
   153	-0.1179	 0.0074	-0.0004	 0.0000	-0.0835	 0.0020	-0.0353	-0.0085	-0.0481	 0.0104	-0.0004	 0.0000	 0.0064	-0.0094	 0.0962	-0.0208	
   154	-0.0320	 0.0472	-0.0004	 0.0000	-0.0835	 0.0020	-0.0898	 0.0113	-0.0954	 0.0347	-0.0004	 0.0000	-0.0209	 0.0005	 0.0826	-0.0158	
   155	-0.0640	 0.0944	-0.0004	 0.0000	-0.0362	-0.0223	-0.0770	-0.0075	-0.0890	 0.0253	-0.0004	 0.0000	-0.0281	-0.0040	 0.0690	-0.0109	
   156	 0.0539	 0.0870	-0.0004	 0.0000	-0.0153	-0.0228	-0.0353	-0.0085	-0.1115	-0.0021	-0.0004	 0.0000	-0.0425	-0.0129	 0.0617	-0.0154	
   157	 0.0539	 0.0870	-0.0004	 0.0000	-0.0153	-0.0228	 0.0064	-0.0095	-0.1051	-0.0115	-0.0004	 0.0000	-0.0770	-0.0075	 0.0545	-0.0198	
   158	 0.2039	 0.0324	-0.0004	 0.0000	-0.0153	-0.0228	 0.0000	-0.0000	-0.0923	-0.0304	-0.0004	 0.0000	-0.0779	-0.0214	 0.0409	-0.0149	
   159	 0.2039	 0.0324	-0.0004	 0.0000	 0.0039	-0.0511	-0.0545	 0.0198	-0.1051	-0.0115	-0.0004	 0.0000	-0.0987	-0.0209	 0.0537	-0.0338	
   160	 0.0859	 0.0398	-0.0004	 0.0000	-0.0170	-0.0507	-0.1026	 0.0302	-0.0843	-0.0120	-0.0004	 0.0000	-0.1124	-0.0159	 0.0464	-0.0382	
   161	 0.0859	 0.0398	-0.0004	 0.0000	-0.0796	-0.0492	-0.1179	 0.0073	-0.1324	-0.0016	-0.0004	 0.0000	-0.1332	-0.0155	 0.0328	-0.0333	
   162	 0.2359	-0.0148	-0.0004	 0.0000	-0.1005	-0.0487	-0.1596	 0.0083	-0.1324	-0.0016	-0.0004	 0.0000	-0.1405	-0.0199	 0.0256	-0.0377	
   163	 0.2039	 0.0324	-0.0004	 0.0000	-0.0941	-0.0582	-0.1950	-0.0002	-0.1733	 0.0133	-0.0004	 0.0000	-0.1549	-0.0289	 0.0119	-0.0328	
   164	 0.1719	 0.0796	-0.0004	 0.0000	-0.0732	-0.0586	-0.1950	-0.0002	-0.1813	-0.0051	-0.0004	 0.0000	-0.1830	-0.0329	-0.0089	-0.0323	
   165	 0.2039	 0.0324	-0.0004	 0.0000	-0.0941	-0.0582	-0.2367	 0.0008	-0.2439	-0.0036	-0.0004	 0.0000	-0.2111	-0.0369	-0.0370	-0.0363	
   166	 0.2039	 0.0324	-0.0004	 0.0000	-0.1349	-0.0433	-0.2367	 0.0008	-0.2311	-0.0225	-0.0004	 0.0000	-0.2392	-0.0409	-0.0579	-0.0358	
   167	-0.0320	 0.0472	-0.0004	 0.0000	-0.1839	-0.0468	-0.2584	-0.0126	-0.2656	-0.0171	-0.0004	 0.0000	-0.2737	-0.0354	-0.0787	-0.0353	
   168	-0.2679	 0.0620	-0.0004	 0.0000	-0.2457	-0.0314	-0.2584	-0.0126	-0.2311	-0.0225	-0.0004	 0.0000	-0.2809	-0.0399	-0.0787	-0.0353	
   169	-0.4178	 0.1166	-0.0004	 0.0000	-0.2737	-0.0354	-0.2239	-0.0181	-0.2167	-0.0136	-0.0004	 0.0000	-0.2737	-0.0354	-0.0579	-0.0358	
   170	-0.3319	 0.1564	-0.0004	 0.0000	-0.2520	-0.0220	-0.1404	-0.0200	-0.1958	-0.0140	-0.0004	 0.0000	-0.2528	-0.0359	-0.0161	-0.0368	
   171	-0.0640	 0.0944	-0.0004	 0.0000	-0.2031	-0.0185	-0.0770	-0.0075	-0.1324	-0.0016	-0.0004	 0.0000	-0.2103	-0.0230	 0.0192	-0.0283	
   172	-0.0960	 0.1416	-0.0004	 0.0000	-0.1196	-0.0204	 0.0000	-0.0000	-0.1115	-0.0021	-0.0004	 0.0000	-0.1749	-0.0145	 0.0681	-0.0248	
   173	 0.0219	 0.1342	-0.0004	 0.0000	-0.0362	-0.0223	 0.1661	-0.0178	-0.1243	 0.0168	-0.0004	 0.0000	-0.1396	-0.0060	 0.0890	-0.0253	
   174	 0.0219	 0.1342	-0.0004	 0.0000	-0.0345	 0.0055	 0.2303	 0.0085	-0.0762	 0.0064	-0.0004	 0.0000	-0.0907	-0.0025	 0.1107	-0.0119	
   175	 0.0539	 0.0870	-0.0004	 0.0000	 0.0064	-0.0094	 0.1694	 0.0378	-0.0272	 0.0099	-0.0004	 0.0000	-0.0489	-0.0035	 0.1315	-0.0123	
   176	-0.0960	 0.1416	-0.0004	 0.0000	 0.0144	 0.0090	 0.2111	 0.0368	 0.0217	 0.0134	-0.0004	 0.0000	-0.0209	 0.0005	 0.1524	-0.0128	
   177	-0.0640	 0.0944	-0.0004	 0.0000	 0.0144	 0.0090	 0.1566	 0.0567	 0.0634	 0.0124	-0.0004	 0.0000	 0.0008	 0.0139	 0.1733	-0.0133	
   178	 0.1179	-0.0074	-0.0004	 0.0000	 0.0144	 0.0090	 0.1566	 0.0567	 0.0362	 0.0224	-0.0004	 0.0000	 0.0353	 0.0085	 0.1869	-0.0183	
   179	 0.3538	-0.0222	-0.0004	 0.0000	 0.0489	 0.0036	 0.1984	 0.0557	 0.0634	 0.0124	-0.0004	 0.0000	 0.0498	 0.0175	 0.2014	-0.0093	
   180	 0.3538	-0.0222	-0.0004	 0.0000	 0.0834	-0.0019	 0.2111	 0.0368	 0.0362	 0.0224	-0.0004	 0.0000	 0.0634	 0.0125	 0.2014	-0.0093	
   181	 0.5897	-0.0369	-0.0004	 0.0000	 0.1388	-0.0078	 0.2529	 0.0359	 0.0506	 0.0313	-0.0004	 0.0000	 0.0707	 0.0170	 0.2150	-0.0143	
   182	 0.5897	-0.0369	-0.0004	 0.0000	 0.1732	-0.0133	 0.2946	 0.0349	 0.0362	 0.0224	-0.0004	 0.0000	 0.0707	 0.0170	 0.2014	-0.0093	
   183	 0.4717	-0.0295	-0.0004	 0.0000	 0.1388	-0.0078	 0.3074	 0.0160	 0.0506	 0.0313	-0.0004	 0.0000	 0.0707	 0.0170	 0.2014	-0.0093	
   184	 0.3858	-0.0694	-0.0004	 0.0000	 0.1107	-0.0118	 0.2529	 0.0359	 0.0587	 0.0497	-0.0004	 0.0000	 0.0843	 0.0120	 0.1950	 0.0001	
   185	 0.2679	-0.0620	-0.0004	 0.0000	 0.0489	 0.0036	 0.1566	 0.0567	 0.0932	 0.0443	-0.0004	 0.0000	 0.0915	 0.0165	 0.2086	-0.0048	
   186	 0.3858	-0.0694	-0.0004	 0.0000	 0.0489	 0.0036	 0.1984	 0.0557	 0.1204	 0.0343	-0.0004	 0.0000	 0.1051	 0.0115	 0.2158	-0.0004	
   187	 0.3538	-0.0222	-0.0004	 0.0000	 0.0489	 0.0036	 0.1984	 0.0557	 0.1477	 0.0244	-0.0004	 0.0000	 0.1124	 0.0160	 0.2367	-0.0008	
   188	 0.1719	 0.0796	-0.0004	 0.0000	 0.0489	 0.0036	 0.1566	 0.0567	 0.1541	 0.0150	-0.0004	 0.0000	 0.1124	 0.0160	 0.2367	-0.0008	
   189	 0.1719	 0.0796	-0.0004	 0.0000	 0.0898	-0.0113	 0.1566	 0.0567	 0.1268	 0.0249	-0.0004	 0.0000	 0.0988	 0.0210	 0.2367	-0.0008	
   190	 0.1719	 0.0796	-0.0004	 0.0000	 0.1516	-0.0267	 0.1984	 0.0557	 0.1396	 0.0060	-0.0004	 0.0000	 0.0988	 0.0210	 0.2367	-0.0008	
   191	 0.2898	 0.0722	-0.0004	 0.0000	 0.1796	-0.0227	 0.2401	 0.0548	 0.1124	 0.0160	-0.0004	 0.0000	 0.0915	 0.0165	 0.2295	-0.0053	
   192	 0.4397	 0.0176	-0.0004	 0.0000	 0.2005	-0.0232	 0.2946	 0.0349	 0.0715	 0.0308	-0.0004	 0.0000	 0.0843	 0.0120	 0.1950	 0.0001	
   193	 0.2039	 0.0324	-0.0004	 0.0000	 0.1924	-0.0416	 0.1984	 0.0557	 0.0715	 0.0308	-0.0004	 0.0000	 0.0771	 0.0075	 0.2014	-0.0093	
   194	 0.0859	 0.0398	-0.0004	 0.0000	 0.1171	-0.0213	 0.1149	 0.0577	 0.0779	 0.0214	-0.0004	 0.0000	 0.0634	 0.0125	 0.2005	-0.0232	
   195	 0.2359	-0.0148	-0.0004	 0.0000	 0.0962	-0.0208	 0.1213	 0.0482	 0.0634	 0.0124	-0.0004	 0.0000	 0.0562	 0.0080	 0.1869	-0.0183	
   196	 0.2039	 0.0324	-0.0004	 0.0000	 0.0681	-0.0248	 0.0796	 0.0492	 0.0634	 0.0124	-0.0004	 0.0000	 0.0353	 0.0085	 0.1733	-0.0133	
   197	 0.3538	-0.0222	-0.0004	 0.0000	 0.0745	-0.0342	 0.1052	 0.0114	 0.0634	 0.0124	-0.0004	 0.0000	 0.0217	 0.0135	 0.1733	-0.0133	
   198	 0.3538	-0.0222	-0.0004	 0.0000	 0.0336	-0.0193	 0.0643	 0.0263	 0.0490	 0.0035	-0.0004	 0.0000	 0.0145	 0.0090	 0.1524	-0.0128	
   199	 0.3218	 0.0250	-0.0004	 0.0000	 0.0681	-0.0248	 0.1052	 0.0114	 0.0000	-0.0000	-0.0004	 0.0000	-0.0064	 0.0095	 0.1452	-0.0173	
   200	 0.3538	-0.0222	-0.0004	 0.0000	 0.0272	-0.0099	 0.0643	 0.0263	 0.0064	-0.0095	-0.0004	 0.0000	-0.0209	 0.0005	 0.1452	-0.0173	
   201	 0.2039	 0.0324	-0.0004	 0.0000	 0.0272	-0.0099	 0.0162	 0.0367	-0.0208	 0.0005	-0.0004	 0.0000	-0.0345	 0.0055	 0.1243	-0.0168	
   202	 0.0859	 0.0398	-0.0004	 0.0000	 0.0064	-0.0094	-0.0256	 0.0377	-0.0208	 0.0005	-0.0004	 0.0000	-0.0353	-0.0084	 0.1107	-0.0119	
   203	 0.0859	 0.0398	-0.0004	 0.0000	-0.0554	 0.0060	-0.0673	 0.0387	-0.0208	 0.0005	-0.0004	 0.0000	-0.0425	-0.0129	 0.1171	-0.0213	
   204	 0.1719	 0.0796	-0.0004	 0.0000	-0.0281	-0.0039	-0.0673	 0.0387	-0.0481	 0.0104	-0.0004	 0.0000	-0.0634	-0.0124	 0.1035	-0.0163	
   205	 0.2039	 0.0324	-0.0004	 0.0000	-0.0153	-0.0228	-0.1090	 0.0396	-0.1035	 0.0163	-0.0004	 0.0000	-0.0843	-0.0119	 0.0826	-0.0158	
   206	 0.3218	 0.0250	-0.0004	 0.0000	 0.0256	-0.0377	-0.0545	 0.0198	-0.1516	 0.0267	-0.0004	 0.0000	-0.1051	-0.0115	 0.0690	-0.0109	
   207	 0.3218	 0.0250	-0.0004	 0.0000	 0.0400	-0.0288	-0.0128	 0.0188	-0.1733	 0.0133	-0.0004	 0.0000	-0.1332	-0.0155	 0.0617	-0.0154	
   208	 0.3218	 0.0250	-0.0004	 0.0000	-0.0089	-0.0323	-0.0545	 0.0198	-0.1733	 0.0133	-0.0004	 0.0000	-0.1541	-0.0150	 0.0473	-0.0243	
   209	 0.2039	 0.0324	-0.0004	 0.0000	-0.0234	-0.0412	-0.0545	 0.0198	-0.1797	 0.0227	-0.0004	 0.0000	-0.1685	-0.0239	 0.0400	-0.0288	
   210	 0.0859	 0.0398	-0.0004	 0.0000	-0.0924	-0.0303	-0.1435	 0.0451	-0.1925	 0.0416	-0.0004	 0.0000	-0.1758	-0.0284	 0.0264	-0.0238	
   211	-0.0320	 0.0472	-0.0004	 0.0000	-0.1349	-0.0433	-0.2687	 0.0480	-0.2069	 0.0327	-0.0004	 0.0000	-0.1966	-0.0279	 0.0192	-0.0283	
   212	-0.0320	 0.0472	-0.0004	 0.0000	-0.1566	-0.0567	-0.3032	 0.0535	-0.2069	 0.0327	-0.0004	 0.0000	-0.2175	-0.0274	 0.0192	-0.0283	
   213	-0.0000	 0.0000	-0.0004	 0.0000	-0.1775	-0.0562	-0.3321	 0.0355	-0.2150	 0.0143	-0.0004	 0.0000	-0.2320	-0.0364	 0.0183	-0.0422	
   214	-0.0320	 0.0472	-0.0004	 0.0000	-0.1775	-0.0562	-0.2776	 0.0157	-0.2359	 0.0148	-0.0004	 0.0000	-0.2601	-0.0404	-0.0025	-0.0417	
   215	 0.0539	 0.0870	-0.0004	 0.0000	-0.1839	-0.0468	-0.2367	 0.0008	-0.2503	 0.0058	-0.0004	 0.0000	-0.2745	-0.0493	-0.0098	-0.0462	
   216	 0.0539	 0.0870	-0.0004	 0.0000	-0.1839	-0.0468	-0.2495	 0.0197	-0.2439	-0.0036	-0.0004	 0.0000	-0.2954	-0.0488	-0.0170	-0.0507	
   217	 0.2359	-0.0148	-0.0004	 0.0000	-0.1903	-0.0373	-0.2141	 0.0282	-0.2503	 0.0058	-0.0004	 0.0000	-0.2954	-0.0488	-0.0170	-0.0507	
   218	 0.0539	 0.0870	-0.0004	 0.0000	-0.1758	-0.0284	-0.1026	 0.0302	-0.2231	-0.0041	-0.0004	 0.0000	-0.2882	-0.0444	-0.0098	-0.0462	
   219	 0.0859	 0.0398	-0.0004	 0.0000	-0.1349	-0.0433	-0.0256	 0.0377	-0.2005	 0.0232	-0.0004	 0.0000	-0.2665	-0.0309	 0.0256	-0.0377	
   220	 0.0539	 0.0870	-0.0004	 0.0000	-0.1005	-0.0487	 0.0515	 0.0452	-0.1243	 0.0168	-0.0004	 0.0000	-0.2239	-0.0180	 0.0818	-0.0298	
   221	 0.0539	 0.0870	-0.0004	 0.0000	-0.0515	-0.0452	 0.0668	 0.0681	-0.0545	 0.0198	-0.0004	 0.0000	-0.1677	-0.0100	 0.1171	-0.0213	
   222	 0.0859	 0.0398	-0.0004	 0.0000	-0.0234	-0.0412	 0.1694	 0.0378	-0.0464	 0.0382	-0.0004	 0.0000	-0.1115	-0.0020	 0.1452	-0.0173	
   223	 0.2039	 0.0324	-0.0004	 0.0000	-0.0281	-0.0039	 0.2529	 0.0359	-0.0192	 0.0283	-0.0004	 0.0000	-0.0762	 0.0064	 0.1733	-0.0133	
   224	 0.1719	 0.0796	-0.0004	 0.0000	 0.0144	 0.0090	 0.2882	 0.0443	 0.0234	 0.0412	-0.0004	 0.0000	-0.0409	 0.0149	 0.2014	-0.0093	
   225	 0.1719	 0.0796	-0.0004	 0.0000	 0.0834	-0.0019	 0.3163	 0.0483	 0.0715	 0.0308	-0.0004	 0.0000	 0.0008	 0.0139	 0.2222	-0.0098	
   226	 0.0539	 0.0870	-0.0004	 0.0000	 0.0979	 0.0071	 0.2754	 0.0632	 0.0996	 0.0348	-0.0004	 0.0000	 0.0426	 0.0130	 0.2495	-0.0197	
   227	 0.2039	 0.0324	-0.0004	 0.0000	 0.1260	 0.0110	 0.3035	 0.0672	 0.1124	 0.0160	-0.0004	 0.0000	 0.0643	 0.0264	 0.2431	-0.0103	
   228	 0.1719	 0.0796	-0.0004	 0.0000	 0.1260	 0.0110	 0.2754	 0.0632	 0.1268	 0.0249	-0.0004	 0.0000	 0.0988	 0.0210	 0.2639	-0.0108	
   229	 0.2898	 0.0722	-0.0004	 0.0000	 0.1132	 0.0299	 0.2209	 0.0831	 0.1204	 0.0343	-0.0004	 0.0000	 0.1060	 0.0254	 0.2712	-0.0063	
   230	 0.2578	 0.1194	-0.0004	 0.0000	 0.1541	 0.0150	 0.2209	 0.0831	 0.1349	 0.0433	-0.0004	 0.0000	 0.1132	 0.0299	 0.2712	-0.0063	
   231	 0.1079	 0.1740	-0.0004	 0.0000	 0.1260	 0.0110	 0.2337	 0.0642	 0.1285	 0.0527	-0.0004	 0.0000	 0.1268	 0.0249	 0.2784	-0.0018	
   232	 0.2258	 0.1666	-0.0004	 0.0000	 0.1941	-0.0138	 0.3035	 0.0672	 0.1285	 0.0527	-0.0004	 0.0000	 0.1268	 0.0249	 0.2784	-0.0018	
   233	 0.3758	 0.1120	-0.0004	 0.0000	 0.2158	-0.0003	 0.3452	 0.0662	 0.1430	 0.0617	-0.0004	 0.0000	 0.1268	 0.0249	 0.2920	-0.0068	
   234	 0.3758	 0.1120	-0.0004	 0.0000	 0.2567	-0.0152	 0.3997	 0.0464	 0.1919	 0.0652	-0.0004	 0.0000	 0.1341	 0.0294	 0.2993	-0.0023	
   235	 0.2898	 0.0722	-0.0004	 0.0000	 0.2158	-0.0003	 0.3580	 0.0474	 0.2601	 0.0404	-0.0004	 0.0000	 0.1341	 0.0294	 0.2993	-0.0023	
   236	 0.1079	 0.1740	-0.0004	 0.0000	 0.2158	-0.0003	 0.3035	 0.0672	 0.2192	 0.0553	-0.0004	 0.0000	 0.1413	 0.0339	 0.2993	-0.0023	
   237	 0.1079	 0.1740	-0.0004	 0.0000	 0.2094	 0.0091	 0.2907	 0.0861	 0.2192	 0.0553	-0.0004	 0.0000	 0.1413	 0.0339	 0.2993	-0.0023	
   238	 0.1079	 0.1740	-0.0004	 0.0000	 0.1966	 0.0280	 0.2498	 0.1010	 0.2192	 0.0553	-0.0004	 0.0000	 0.1549	 0.0289	 0.2856	 0.0027	
   239	 0.1079	 0.1740	-0.0004	 0.0000	 0.1902	 0.0374	 0.2081	 0.1020	 0.1919	 0.0652	-0.0004	 0.0000	 0.1413	 0.0339	 0.2648	 0.0031	
   240	 0.3758	 0.1120	-0.0004	 0.0000	 0.2456	 0.0315	 0.2498	 0.1010	 0.1430	 0.0617	-0.0004	 0.0000	 0.1341	 0.0294	 0.2648	 0.0031	
   241	 0.2578	 0.1194	-0.0004	 0.0000	 0.2584	 0.0126	 0.2081	 0.1020	 0.1430	 0.0617	-0.0004	 0.0000	 0.1341	 0.0294	 0.2576	-0.0013	
   242	 0.2578	 0.1194	-0.0004	 0.0000	 0.2311	 0.0225	 0.1536	 0.1218	 0.1285	 0.0527	-0.0004	 0.0000	 0.1268	 0.0249	 0.2503	-0.0058	
   243	 0.2578	 0.1194	-0.0004	 0.0000	 0.2311	 0.0225	 0.1664	 0.1029	 0.1157	 0.0716	-0.0004	 0.0000	 0.1268	 0.0249	 0.2639	-0.0108	
   244	 0.2898	 0.0722	-0.0004	 0.0000	 0.1966	 0.0280	 0.1246	 0.1039	 0.1013	 0.0627	-0.0004	 0.0000	 0.1196	 0.0205	 0.2503	-0.0058	
   245	 0.4078	 0.0648	-0.0004	 0.0000	 0.2094	 0.0091	 0.1246	 0.1039	 0.1077	 0.0532	-0.0004	 0.0000	 0.1060	 0.0254	 0.2503	-0.0058	
   246	 0.4078	 0.0648	-0.0004	 0.0000	 0.1749	 0.0146	 0.1310	 0.0945	 0.0395	 0.0780	-0.0004	 0.0000	 0.0851	 0.0259	 0.2431	-0.0103	
   247	 0.2898	 0.0722	-0.0004	 0.0000	 0.1668	-0.0038	 0.1566	 0.0567	 0.0523	 0.0592	-0.0004	 0.0000	 0.0779	 0.0214	 0.2359	-0.0148	
   248	 0.4078	 0.0648	-0.0004	 0.0000	 0.1813	 0.0051	 0.2111	 0.0368	 0.0250	 0.0691	-0.0004	 0.0000	 0.0707	 0.0170	 0.2222	-0.0098	
   249	 0.4078	 0.0648	-0.0004	 0.0000	 0.1668	-0.0038	 0.1566	 0.0567	 0.0250	 0.0691	-0.0004	 0.0000	 0.0570	 0.0219	 0.2086	-0.0048	
   250	 0.4078	 0.0648	-0.0004	 0.0000	 0.1732	-0.0133	 0.1694	 0.0378	 0.0250	 0.0691	-0.0004	 0.0000	 0.0562	 0.0080	 0.2014	-0.0093	
   251	 0.4078	 0.0648	-0.0004	 0.0000	 0.1668	-0.0038	 0.1758	 0.0284	 0.0314	 0.0596	-0.0004	 0.0000	 0.0153	 0.0229	 0.1805	-0.0088	
   252	 0.4078	 0.0648	-0.0004	 0.0000	 0.1324	 0.0016	 0.1213	 0.0482	 0.0042	 0.0696	-0.0004	 0.0000	 0.0145	 0.0090	 0.1733	-0.0133	
   253	 0.2578	 0.1194	-0.0004	 0.0000	 0.0915	 0.0165	 0.0796	 0.0492	 0.0314	 0.0596	-0.0004	 0.0000	 0.0072	 0.0045	 0.1733	-0.0133	
   254	 0.2578	 0.1194	-0.0004	 0.0000	 0.0979	 0.0071	 0.0924	 0.0303	 0.0170	 0.0507	-0.0004	 0.0000	-0.0136	 0.0050	 0.1797	-0.0227	
   255	 0.1399	 0.1268	-0.0004	 0.0000	 0.0898	-0.0113	 0.0290	 0.0179	-0.0039	 0.0512	-0.0004	 0.0000	-0.0345	 0.0055	 0.1588	-0.0223	
   256	 0.2898	 0.0722	-0.0004	 0.0000	 0.0834	-0.0019	 0.0707	 0.0169	-0.0320	 0.0472	-0.0004	 0.0000	-0.0553	 0.0060	 0.1452	-0.0173	
   257	 0.2578	 0.1194	-0.0004	 0.0000	 0.1107	-0.0118	 0.0707	 0.0169	-0.0464	 0.0382	-0.0004	 0.0000	-0.0562	-0.0080	 0.1243	-0.0168	
   258	 0.3758	 0.1120	-0.0004	 0.0000	 0.1516	-0.0267	 0.0707	 0.0169	-0.0673	 0.0387	-0.0004	 0.0000	-0.0770	-0.0075	 0.1171	-0.0213	
   259	 0.2258	 0.1666	-0.0004	 0.0000	 0.1107	-0.0118	 0.0162	 0.0367	-0.1082	 0.0536	-0.0004	 0.0000	-0.0979	-0.0070	 0.1099	-0.0258	
   260	 0.2578	 0.1194	-0.0004	 0.0000	 0.0898	-0.0113	 0.0290	 0.0179	-0.1227	 0.0446	-0.0004	 0.0000	-0.1124	-0.0159	 0.0890	-0.0253	
   261	 0.2578	 0.1194	-0.0004	 0.0000	 0.0681	-0.0248	-0.0801	 0.0576	-0.1163	 0.0352	-0.0004	 0.0000	-0.1469	-0.0105	 0.0754	-0.0203	
   262	 0.2578	 0.1194	-0.0004	 0.0000	 0.0336	-0.0193	-0.1218	 0.0585	-0.1435	 0.0451	-0.0004	 0.0000	-0.1477	-0.0244	 0.0818	-0.0298	
   263	 0.2898	 0.0722	-0.0004	 0.0000	 0.0256	-0.0377	-0.1026	 0.0302	-0.1516	 0.0267	-0.0004	 0.0000	-0.1758	-0.0284	 0.0473	-0.0243	
   264	 0.1719	 0.0796	-0.0004	 0.0000	-0.0643	-0.0263	-0.1724	 0.0272	-0.1797	 0.0227	-0.0004	 0.0000	-0.2103	-0.0230	 0.0400	-0.0288	
   265	 0.1719	 0.0796	-0.0004	 0.0000	-0.0643	-0.0263	-0.1852	 0.0461	-0.2069	 0.0327	-0.0004	 0.0000	-0.2175	-0.0274	 0.0328	-0.0333	
   266	 0.1719	 0.0796	-0.0004	 0.0000	-0.0771	-0.0075	-0.1090	 0.0396	-0.1797	 0.0227	-0.0004	 0.0000	-0.2175	-0.0274	 0.0400	-0.0288	
   267	 0.1719	 0.0796	-0.0004	 0.0000	-0.0426	-0.0129	-0.0384	 0.0566	-0.1307	 0.0263	-0.0004	 0.0000	-0.2030	-0.0185	 0.0473	-0.0243	
   268	 0.1719	 0.0796	-0.0004	 0.0000	-0.0345	 0.0055	 0.0515	 0.0452	-0.1435	 0.0451	-0.0004	 0.0000	-0.1677	-0.0100	 0.0754	-0.0203	
   269	 0.1719	 0.0796	-0.0004	 0.0000	 0.0080	 0.0184	 0.1021	 0.0765	-0.1082	 0.0536	-0.0004	 0.0000	-0.1115	-0.0020	 0.1243	-0.0168	
   270	 0.1399	 0.1268	-0.0004	 0.0000	 0.0297	 0.0319	 0.1310	 0.0945	-0.0737	 0.0482	-0.0004	 0.0000	-0.0690	 0.0109	 0.1660	-0.0178	
   271	 0.2898	 0.0722	-0.0004	 0.0000	 0.0723	 0.0448	 0.2209	 0.0831	-0.0103	 0.0606	-0.0004	 0.0000	-0.0264	 0.0239	 0.2014	-0.0093	
   272	 0.4078	 0.0648	-0.0004	 0.0000	 0.1004	 0.0488	 0.3035	 0.0672	 0.0314	 0.0596	-0.0004	 0.0000	 0.0089	 0.0323	 0.2222	-0.0098	
   273	 0.4078	 0.0648	-0.0004	 0.0000	 0.1285	 0.0528	 0.2907	 0.0861	 0.0587	 0.0497	-0.0004	 0.0000	 0.0506	 0.0314	 0.2367	-0.0008	
   274	 0.4078	 0.0648	-0.0004	 0.0000	 0.1493	 0.0523	 0.3324	 0.0851	 0.0932	 0.0443	-0.0004	 0.0000	 0.0787	 0.0354	 0.2712	-0.0063	
   275	 0.4078	 0.0648	-0.0004	 0.0000	 0.1493	 0.0523	 0.3324	 0.0851	 0.1077	 0.0532	-0.0004	 0.0000	 0.0932	 0.0443	 0.2648	 0.0031	
   276	 0.4078	 0.0648	-0.0004	 0.0000	 0.1774	 0.0563	 0.3260	 0.0946	 0.1157	 0.0716	-0.0004	 0.0000	 0.1076	 0.0533	 0.2993	-0.0023	
   277	 0.4078	 0.0648	-0.0004	 0.0000	 0.2183	 0.0414	 0.3260	 0.0946	 0.1157	 0.0716	-0.0004	 0.0000	 0.1285	 0.0528	 0.3057	-0.0117	
   278	 0.5577	 0.0103	-0.0004	 0.0000	 0.2183	 0.0414	 0.3805	 0.0747	 0.1157	 0.0716	-0.0004	 0.0000	 0.1421	 0.0478	 0.3129	-0.0073	
   279	 0.5257	 0.0575	-0.0004	 0.0000	 0.2183	 0.0414	 0.3805	 0.0747	 0.1647	 0.0751	-0.0004	 0.0000	 0.1494	 0.0523	 0.3065	 0.0022	
   280	 0.3758	 0.1120	-0.0004	 0.0000	 0.2183	 0.0414	 0.2779	 0.1050	 0.1855	 0.0746	-0.0004	 0.0000	 0.1630	 0.0473	 0.3201	-0.0028	
   281	 0.5257	 0.0575	-0.0004	 0.0000	 0.2183	 0.0414	 0.2907	 0.0861	 0.1647	 0.0751	-0.0004	 0.0000	 0.1630	 0.0473	 0.3065	 0.0022	
   282	 0.4937	 0.1046	-0.0004	 0.0000	 0.2119	 0.0509	 0.2907	 0.0861	 0.1647	 0.0751	-0.0004	 0.0000	 0.1702	 0.0518	 0.3065	 0.0022	
   283	 0.6253	 0.0923	-0.0004	 0.0000	 0.2737	 0.0355	 0.3324	 0.0851	 0.1855	 0.0746	-0.0004	 0.0000	 0.1702	 0.0518	 0.3065	 0.0022	
   284	 0.7368	 0.0943	-0.0004	 0.0000	 0.2953	 0.0489	 0.3677	 0.0936	 0.1855	 0.0746	-0.0004	 0.0000	 0.1775	 0.0563	 0.3065	 0.0022	
   285	 0.5869	 0.1489	-0.0004	 0.0000	 0.2953	 0.0489	 0.3805	 0.0747	 0.2128	 0.0647	-0.0004	 0.0000	 0.1911	 0.0513	 0.3065	 0.0022	
   286	 0.5869	 0.1489	-0.0004	 0.0000	 0.2953	 0.0489	 0.3260	 0.0946	 0.1919	 0.0652	-0.0004	 0.0000	 0.1911	 0.0513	 0.3129	-0.0073	
   287	 0.5869	 0.1489	-0.0004	 0.0000	 0.2545	 0.0638	 0.3324	 0.0851	 0.1855	 0.0746	-0.0004	 0.0000	 0.2047	 0.0464	 0.3065	 0.0022	
   288	 0.6253	 0.0923	-0.0004	 0.0000	 0.2609	 0.0544	 0.2907	 0.0861	 0.1855	 0.0746	-0.0004	 0.0000	 0.1911	 0.0513	 0.3065	 0.0022	
   289	 0.4937	 0.1046	-0.0004	 0.0000	 0.2328	 0.0504	 0.2626	 0.0821	 0.2192	 0.0553	-0.0004	 0.0000	 0.1911	 0.0513	 0.3129	-0.0073	
   290	 0.4937	 0.1046	-0.0004	 0.0000	 0.2328	 0.0504	 0.2626	 0.0821	 0.1855	 0.0746	-0.0004	 0.0000	 0.1975	 0.0419	 0.3129	-0.0073	
   291	 0.4937	 0.1046	-0.0004	 0.0000	 0.2328	 0.0504	 0.2626	 0.0821	 0.1919	 0.0652	-0.0004	 0.0000	 0.1702	 0.0518	 0.2993	-0.0023	
   292	 0.5257	 0.0575	-0.0004	 0.0000	 0.2328	 0.0504	 0.2754	 0.0632	 0.1855	 0.0746	-0.0004	 0.0000	 0.1630	 0.0473	 0.2920	-0.0068	
   293	 0.5257	 0.0575	-0.0004	 0.0000	 0.2119	 0.0509	 0.2882	 0.0443	 0.1647	 0.0751	-0.0004	 0.0000	 0.1558	 0.0429	 0.2848	-0.0113	
   294	 0.4078	 0.0648	-0.0004	 0.0000	 0.1710	 0.0657	 0.2337	 0.0642	 0.1238	 0.0900	-0.0004	 0.0000	 0.1485	 0.0384	 0.2776	-0.0157	
   295	 0.3758	 0.1120	-0.0004	 0.0000	 0.1710	 0.0657	 0.1792	 0.0840	 0.1583	 0.0846	-0.0004	 0.0000	 0.1349	 0.0433	 0.2776	-0.0157	
   296	 0.3758	 0.1120	-0.0004	 0.0000	 0.1774	 0.0563	 0.1310	 0.0945	 0.1455	 0.1034	-0.0004	 0.0000	 0.1341	 0.0294	 0.2639	-0.0108	
   297	 0.3438	 0.1592	-0.0004	 0.0000	 0.2183	 0.0414	 0.1310	 0.0945	 0.1455	 0.1034	-0.0004	 0.0000	 0.1204	 0.0344	 0.2503	-0.0058	
   298	 0.3438	 0.1592	-0.0004	 0.0000	 0.2183	 0.0414	 0.1310	 0.0945	 0.0965	 0.0999	-0.0004	 0.0000	 0.1060	 0.0254	 0.2359	-0.0148	
   299	 0.3438	 0.1592	-0.0004	 0.0000	 0.1774	 0.0563	 0.1310	 0.0945	 0.0693	 0.1099	-0.0004	 0.0000	 0.0988	 0.0210	 0.2222	-0.0098	
   300	 0.4937	 0.1046	-0.0004	 0.0000	 0.2183	 0.0414	 0.1856	 0.0746	 0.0821	 0.0910	-0.0004	 0.0000	 0.0643	 0.0264	 0.2014	-0.0093	
   301	 0.4617	 0.1518	-0.0004	 0.0000	 0.2311	 0.0225	 0.2337	 0.0642	 0.0740	 0.0726	-0.0004	 0.0000	 0.0434	 0.0269	 0.1805	-0.0088	
   302	 0.3438	 0.1592	-0.0004	 0.0000	 0.2094	 0.0091	 0.1438	 0.0756	 0.0523	 0.0592	-0.0004	 0.0000	 0.0225	 0.0274	 0.1733	-0.0133	
   303	 0.2578	 0.1194	-0.0004	 0.0000	 0.1477	 0.0245	 0.0476	 0.0964	 0.0587	 0.0497	-0.0004	 0.0000	 0.0017	 0.0279	 0.1797	-0.0227	
   304	 0.2578	 0.1194	-0.0004	 0.0000	 0.1068	 0.0394	 0.0476	 0.0964	 0.0715	 0.0308	-0.0004	 0.0000	-0.0056	 0.0234	 0.1660	-0.0178	
   305	 0.5577	 0.0103	-0.0004	 0.0000	 0.1477	 0.0245	 0.0476	 0.0964	 0.0506	 0.0313	-0.0004	 0.0000	-0.0064	 0.0095	 0.1588	-0.0223	
   306	 0.5577	 0.0103	-0.0004	 0.0000	 0.1541	 0.0150	 0.0259	 0.0830	-0.0039	 0.0512	-0.0004	 0.0000	-0.0409	 0.0149	 0.1315	-0.0123	
   307	 0.5577	 0.0103	-0.0004	 0.0000	 0.1541	 0.0150	-0.0158	 0.0839	-0.0464	 0.0382	-0.0004	 0.0000	-0.0553	 0.0060	 0.0971	-0.0069	
   308	 0.4397	 0.0176	-0.0004	 0.0000	 0.0851	 0.0259	-0.0030	 0.0651	-0.0673	 0.0387	-0.0004	 0.0000	-0.0898	 0.0114	 0.1099	-0.0258	
   309	 0.2898	 0.0722	-0.0004	 0.0000	 0.0642	 0.0264	-0.0448	 0.0660	-0.0673	 0.0387	-0.0004	 0.0000	-0.1043	 0.0025	 0.1026	-0.0302	
   310	 0.1399	 0.1268	-0.0004	 0.0000	 0.0297	 0.0319	-0.0929	 0.0764	-0.0954	 0.0347	-0.0004	 0.0000	-0.1188	-0.0065	 0.0882	-0.0392	
   311	-0.2139	 0.1490	-0.0004	 0.0000	-0.0601	 0.0432	-0.1090	 0.0396	-0.1163	 0.0352	-0.0004	 0.0000	-0.1396	-0.0060	 0.0737	-0.0482	
   312	-0.1819	 0.1018	-0.0004	 0.0000	-0.0682	 0.0249	-0.1435	 0.0451	-0.1035	 0.0163	-0.0004	 0.0000	-0.1541	-0.0150	 0.0601	-0.0432	
   313	 0.0539	 0.0870	-0.0004	 0.0000	-0.1027	 0.0303	-0.1026	 0.0302	-0.1163	 0.0352	-0.0004	 0.0000	-0.1677	-0.0100	 0.0601	-0.0432	
   314	 0.0219	 0.1342	-0.0004	 0.0000	-0.1027	 0.0303	-0.1026	 0.0302	-0.1163	 0.0352	-0.0004	 0.0000	-0.1677	-0.0100	 0.0601	-0.0432	
   315	 0.0219	 0.1342	-0.0004	 0.0000	-0.0963	 0.0209	-0.1090	 0.0396	-0.1227	 0.0446	-0.0004	 0.0000	-0.1469	-0.0105	 0.0809	-0.0437	
   316	-0.0100	 0.1814	-0.0004	 0.0000	-0.0409	 0.0149	-0.0384	 0.0566	-0.0737	 0.0482	-0.0004	 0.0000	-0.1252	 0.0029	 0.1163	-0.0352	
   317	 0.2258	 0.1666	-0.0004	 0.0000	 0.0425	 0.0130	 0.0668	 0.0681	-0.0592	 0.0571	-0.0004	 0.0000	-0.0898	 0.0114	 0.1443	-0.0312	
   318	 0.3438	 0.1592	-0.0004	 0.0000	 0.0915	 0.0165	 0.1310	 0.0945	 0.0314	 0.0596	-0.0004	 0.0000	-0.0473	 0.0244	 0.1861	-0.0322	
   319	 0.3118	 0.2064	-0.0004	 0.0000	 0.1132	 0.0299	 0.2081	 0.1020	 0.0523	 0.0592	-0.0004	 0.0000	-0.0120	 0.0328	 0.2206	-0.0376	
   320	 0.3438	 0.1592	-0.0004	 0.0000	 0.1477	 0.0245	 0.1953	 0.1208	 0.1077	 0.0532	-0.0004	 0.0000	 0.0298	 0.0319	 0.2487	-0.0336	
   321	 0.4617	 0.1518	-0.0004	 0.0000	 0.1685	 0.0240	 0.2715	 0.1144	 0.1157	 0.0716	-0.0004	 0.0000	 0.0579	 0.0358	 0.2495	-0.0197	
   322	 0.4233	 0.2085	-0.0004	 0.0000	 0.1557	 0.0429	 0.3004	 0.1323	 0.1238	 0.0900	-0.0004	 0.0000	 0.0860	 0.0398	 0.2767	-0.0296	
   323	 0.4617	 0.1518	-0.0004	 0.0000	 0.1557	 0.0429	 0.3132	 0.1134	 0.1174	 0.0994	-0.0004	 0.0000	 0.1068	 0.0393	 0.2840	-0.0252	
   324	 0.6253	 0.0923	-0.0004	 0.0000	 0.2311	 0.0225	 0.3677	 0.0936	 0.1455	 0.1034	-0.0004	 0.0000	 0.1140	 0.0438	 0.2776	-0.0157	
   325	 0.6253	 0.0923	-0.0004	 0.0000	 0.2183	 0.0414	 0.3677	 0.0936	 0.1174	 0.0994	-0.0004	 0.0000	 0.1140	 0.0438	 0.2840	-0.0252	
   326	 0.9004	 0.0348	-0.0004	 0.0000	 0.2392	 0.0409	 0.4640	 0.0728	 0.1663	 0.1030	-0.0004	 0.0000	 0.1213	 0.0483	 0.2840	-0.0252	
   327	 0.7368	 0.0943	-0.0004	 0.0000	 0.2392	 0.0409	 0.4095	 0.0926	 0.1727	 0.0935	-0.0004	 0.0000	 0.1213	 0.0483	 0.2767	-0.0296	
   328	 0.4937	 0.1046	-0.0004	 0.0000	 0.2119	 0.0509	 0.3132	 0.1134	 0.1936	 0.0930	-0.0004	 0.0000	 0.1213	 0.0483	 0.2767	-0.0296	
   329	 0.4937	 0.1046	-0.0004	 0.0000	 0.2392	 0.0409	 0.3132	 0.1134	 0.1936	 0.0930	-0.0004	 0.0000	 0.1349	 0.0433	 0.2840	-0.0252	
   330	 0.6573	 0.0451	-0.0004	 0.0000	 0.2119	 0.0509	 0.3132	 0.1134	 0.1936	 0.0930	-0.0004	 0.0000	 0.1485	 0.0384	 0.2776	-0.0157	
   331	 0.6573	 0.0451	-0.0004	 0.0000	 0.2392	 0.0409	 0.2459	 0.1522	 0.1808	 0.1119	-0.0004	 0.0000	 0.1485	 0.0384	 0.2776	-0.0157	
   332	 0.6573	 0.0451	-0.0004	 0.0000	 0.2328	 0.0504	 0.2587	 0.1333	 0.1808	 0.1119	-0.0004	 0.0000	 0.1421	 0.0478	 0.2776	-0.0157	
   333	 0.6253	 0.0923	-0.0004	 0.0000	 0.2328	 0.0504	 0.2459	 0.1522	 0.1808	 0.1119	-0.0004	 0.0000	 0.1421	 0.0478	 0.2639	-0.0108	
   334	 0.7368	 0.0943	-0.0004	 0.0000	 0.2609	 0.0544	 0.3004	 0.1323	 0.2362	 0.1060	-0.0004	 0.0000	 0.1421	 0.0478	 0.2639	-0.0108	
   335	 0.5869	 0.1489	-0.0004	 0.0000	 0.2609	 0.0544	 0.3004	 0.1323	 0.2025	 0.1253	-0.0004	 0.0000	 0.1349	 0.0433	 0.2503	-0.0058	
   336	 0.4937	 0.1046	-0.0004	 0.0000	 0.2328	 0.0504	 0.2306	 0.1293	 0.2298	 0.1154	-0.0004	 0.0000	 0.1349	 0.0433	 0.2503	-0.0058	
   337	 0.4937	 0.1046	-0.0004	 0.0000	 0.2119	 0.0509	 0.1825	 0.1397	 0.2025	 0.1253	-0.0004	 0.0000	 0.1277	 0.0389	 0.2431	-0.0103	
   338	 0.4617	 0.1518	-0.0004	 0.0000	 0.2183	 0.0414	 0.1825	 0.1397	 0.1616	 0.1402	-0.0004	 0.0000	 0.1204	 0.0344	 0.2431	-0.0103	
   339	 0.4617	 0.1518	-0.0004	 0.0000	 0.2311	 0.0225	 0.1536	 0.1218	 0.1407	 0.1407	-0.0004	 0.0000	 0.1132	 0.0299	 0.2495	-0.0197	
   340	 0.5869	 0.1489	-0.0004	 0.0000	 0.2456	 0.0315	 0.2498	 0.1010	 0.0854	 0.1466	-0.0004	 0.0000	 0.1060	 0.0254	 0.2423	-0.0242	
   341	 0.8364	 0.1292	-0.0004	 0.0000	 0.3426	 0.0246	 0.3324	 0.0851	 0.0901	 0.1094	-0.0004	 0.0000	 0.0851	 0.0259	 0.2078	-0.0188	
   342	 0.9863	 0.0746	-0.0004	 0.0000	 0.3362	 0.0340	 0.3805	 0.0747	 0.0901	 0.1094	-0.0004	 0.0000	 0.0779	 0.0214	 0.1869	-0.0183	
   343	 0.8364	 0.1292	-0.0004	 0.0000	 0.3426	 0.0246	 0.3260	 0.0946	 0.0901	 0.1094	-0.0004	 0.0000	 0.0643	 0.0264	 0.1797	-0.0227	
   344	 0.7368	 0.0943	-0.0004	 0.0000	 0.2737	 0.0355	 0.2370	 0.1199	 0.0693	 0.1099	-0.0004	 0.0000	 0.0570	 0.0219	 0.1724	-0.0272	
   345	 0.4617	 0.1518	-0.0004	 0.0000	 0.1774	 0.0563	 0.1536	 0.1218	 0.0629	 0.1193	-0.0004	 0.0000	 0.0498	 0.0175	 0.1660	-0.0178	
   346	 0.6253	 0.0923	-0.0004	 0.0000	 0.1493	 0.0523	 0.1118	 0.1228	 0.0693	 0.1099	-0.0004	 0.0000	 0.0289	 0.0179	 0.1588	-0.0223	
   347	 0.4937	 0.1046	-0.0004	 0.0000	 0.1004	 0.0488	 0.0765	 0.1143	 0.0693	 0.1099	-0.0004	 0.0000	 0.0153	 0.0229	 0.1588	-0.0223	
   348	 0.4937	 0.1046	-0.0004	 0.0000	 0.1004	 0.0488	 0.0348	 0.1153	-0.0070	 0.1163	-0.0004	 0.0000	 0.0008	 0.0139	 0.1516	-0.0267	
   349	 0.5257	 0.0575	-0.0004	 0.0000	 0.1068	 0.0394	 0.0348	 0.1153	-0.0150	 0.0979	-0.0004	 0.0000	-0.0337	 0.0194	 0.1371	-0.0357	
   350	 0.5257	 0.0575	-0.0004	 0.0000	 0.1068	 0.0394	 0.0893	 0.0954	-0.0150	 0.0979	-0.0004	 0.0000	-0.0409	 0.0149	 0.1099	-0.0258	
   351	 0.5257	 0.0575	-0.0004	 0.0000	 0.1477	 0.0245	 0.1310	 0.0945	-0.0295	 0.0889	-0.0004	 0.0000	-0.0617	 0.0154	 0.1026	-0.0302	
   352	 0.5577	 0.0103	-0.0004	 0.0000	 0.1132	 0.0299	 0.0893	 0.0954	-0.0295	 0.0889	-0.0004	 0.0000	-0.0626	 0.0015	 0.0882	-0.0392	
   353	 0.4397	 0.0176	-0.0004	 0.0000	 0.0851	 0.0259	 0.0476	 0.0964	-0.0640	 0.0944	-0.0004	 0.0000	-0.0834	 0.0020	 0.0809	-0.0437	
   354	 0.4078	 0.0648	-0.0004	 0.0000	 0.0642	 0.0264	-0.0350	 0.1122	-0.0640	 0.0944	-0.0004	 0.0000	-0.1043	 0.0025	 0.0673	-0.0387	
   355	 0.4078	 0.0648	-0.0004	 0.0000	 0.0834	-0.0019	-0.0704	 0.1038	-0.0704	 0.1038	-0.0004	 0.0000	-0.1188	-0.0065	 0.0601	-0.0432	
   356	 0.4937	 0.1046	-0.0004	 0.0000	 0.0834	-0.0019	 0.0162	 0.0367	-0.1057	 0.0953	-0.0004	 0.0000	-0.1469	-0.0105	 0.0392	-0.0427	
   357	 0.5257	 0.0575	-0.0004	 0.0000	 0.0489	 0.0036	-0.0384	 0.0566	-0.1419	 0.0730	-0.0004	 0.0000	-0.1749	-0.0145	 0.0247	-0.0517	
   358	 0.5257	 0.0575	-0.0004	 0.0000	 0.0144	 0.0090	 0.0162	 0.0367	-0.1146	 0.0630	-0.0004	 0.0000	-0.1958	-0.0140	 0.0039	-0.0512	
   359	 0.3758	 0.1120	-0.0004	 0.0000	 0.0144	 0.0090	 0.0643	 0.0263	-0.1082	 0.0536	-0.0004	 0.0000	-0.2094	-0.0090	-0.0098	-0.0462	
   360	 0.2578	 0.1194	-0.0004	 0.0000	-0.0000	 0.0000	 0.0515	 0.0452	-0.0737	 0.0482	-0.0004	 0.0000	-0.1749	-0.0145	 0.0247	-0.0517	
   361	-0.0100	 0.1814	-0.0004	 0.0000	-0.0000	 0.0000	 0.0796	 0.0492	-0.0720	 0.0760	-0.0004	 0.0000	-0.1533	-0.0011	 0.0601	-0.0432	
   362	 0.1079	 0.1740	-0.0004	 0.0000	 0.0489	 0.0036	 0.1984	 0.0557	-0.0231	 0.0795	-0.0004	 0.0000	-0.1107	 0.0119	 0.0818	-0.0298	
   363	 0.1079	 0.1740	-0.0004	 0.0000	 0.0425	 0.0130	 0.1792	 0.0840	 0.0740	 0.0726	-0.0004	 0.0000	-0.0545	 0.0199	 0.1307	-0.0263	
   364	 0.0759	 0.2212	-0.0004	 0.0000	 0.0233	 0.0413	 0.2081	 0.1020	 0.0885	 0.0815	-0.0004	 0.0000	-0.0192	 0.0283	 0.1588	-0.0223	
   365	 0.1938	 0.2138	-0.0004	 0.0000	 0.0659	 0.0543	 0.2715	 0.1144	 0.0821	 0.0910	-0.0004	 0.0000	 0.0161	 0.0368	 0.1733	-0.0133	
   366	 0.1618	 0.2610	-0.0004	 0.0000	 0.1493	 0.0523	 0.3967	 0.1115	 0.1174	 0.0994	-0.0004	 0.0000	 0.0442	 0.0408	 0.1877	-0.0044	
   367	 0.3913	 0.2557	-0.0004	 0.0000	 0.2119	 0.0509	 0.4737	 0.1190	 0.1663	 0.1030	-0.0004	 0.0000	 0.0860	 0.0398	 0.2150	-0.0143	
   368	 0.2734	 0.2631	-0.0004	 0.0000	 0.2328	 0.0504	 0.4320	 0.1200	 0.2217	 0.0970	-0.0004	 0.0000	 0.1140	 0.0438	 0.2359	-0.0148	
   369	 0.1618	 0.2610	-0.0004	 0.0000	 0.2737	 0.0355	 0.3903	 0.1209	 0.2298	 0.1154	-0.0004	 0.0000	 0.1421	 0.0478	 0.2703	-0.0202	
   370	 0.3118	 0.2064	-0.0004	 0.0000	 0.2609	 0.0544	 0.4448	 0.1011	 0.2787	 0.1189	-0.0004	 0.0000	 0.1566	 0.0568	 0.2848	-0.0113	
   371	 0.2734	 0.2631	-0.0004	 0.0000	 0.2609	 0.0544	 0.3903	 0.1209	 0.2659	 0.1378	-0.0004	 0.0000	 0.1839	 0.0468	 0.2984	-0.0162	
   372	 0.2734	 0.2631	-0.0004	 0.0000	 0.2328	 0.0504	 0.2876	 0.1512	 0.2250	 0.1527	-0.0004	 0.0000	 0.1911	 0.0513	 0.2984	-0.0162	
   373	 0.5549	 0.1961	-0.0004	 0.0000	 0.2545	 0.0638	 0.3357	 0.1408	 0.1897	 0.1442	-0.0004	 0.0000	 0.1911	 0.0513	 0.2776	-0.0157	
   374	 0.7368	 0.0943	-0.0004	 0.0000	 0.2890	 0.0584	 0.3647	 0.1587	 0.2025	 0.1253	-0.0004	 0.0000	 0.1911	 0.0513	 0.2776	-0.0157	
   375	 0.9004	 0.0348	-0.0004	 0.0000	 0.3170	 0.0623	 0.4481	 0.1568	 0.2170	 0.1343	-0.0004	 0.0000	 0.1983	 0.0558	 0.2776	-0.0157	
   376	 0.9004	 0.0348	-0.0004	 0.0000	 0.3443	 0.0524	 0.4417	 0.1662	 0.2442	 0.1244	-0.0004	 0.0000	 0.2056	 0.0603	 0.2776	-0.0157	
   377	 0.5257	 0.0575	-0.0004	 0.0000	 0.3298	 0.0435	 0.4064	 0.1577	 0.2170	 0.1343	-0.0004	 0.0000	 0.2128	 0.0648	 0.2639	-0.0108	
   378	 0.4078	 0.0648	-0.0004	 0.0000	 0.2953	 0.0489	 0.3647	 0.1587	 0.2378	 0.1338	-0.0004	 0.0000	 0.2336	 0.0643	 0.2712	-0.0063	
   379	 0.4937	 0.1046	-0.0004	 0.0000	 0.2609	 0.0544	 0.3357	 0.1408	 0.2378	 0.1338	-0.0004	 0.0000	 0.2336	 0.0643	 0.2784	-0.0018	
   380	 0.4937	 0.1046	-0.0004	 0.0000	 0.2609	 0.0544	 0.2876	 0.1512	 0.2570	 0.1055	-0.0004	 0.0000	 0.2336	 0.0643	 0.2648	 0.0031	
   381	 0.4937	 0.1046	-0.0004	 0.0000	 0.3017	 0.0395	 0.3004	 0.1323	 0.2362	 0.1060	-0.0004	 0.0000	 0.2264	 0.0598	 0.2576	-0.0013	
   382	 0.4617	 0.1518	-0.0004	 0.0000	 0.3017	 0.0395	 0.3004	 0.1323	 0.2298	 0.1154	-0.0004	 0.0000	 0.2056	 0.0603	 0.2439	 0.0036	
   383	 0.3438	 0.1592	-0.0004	 0.0000	 0.2609	 0.0544	 0.3004	 0.1323	 0.2298	 0.1154	-0.0004	 0.0000	 0.1983	 0.0558	 0.2367	-0.0008	
   384	 0.3438	 0.1592	-0.0004	 0.0000	 0.2737	 0.0355	 0.2587	 0.1333	 0.2570	 0.1055	-0.0004	 0.0000	 0.1911	 0.0513	 0.2222	-0.0098	
   385	 0.3758	 0.1120	-0.0004	 0.0000	 0.3145	 0.0206	 0.2587	 0.1333	 0.2362	 0.1060	-0.0004	 0.0000	 0.1911	 0.0513	 0.2286	-0.0192	
   386	 0.4078	 0.0648	-0.0004	 0.0000	 0.2801	 0.0260	 0.2587	 0.1333	 0.2298	 0.1154	-0.0004	 0.0000	 0.1839	 0.0468	 0.2423	-0.0242	
   387	 0.5257	 0.0575	-0.0004	 0.0000	 0.2737	 0.0355	 0.2306	 0.1293	 0.2442	 0.1244	-0.0004	 0.0000	 0.1839	 0.0468	 0.2495	-0.0197	
   388	 0.4937	 0.1046	-0.0004	 0.0000	 0.2801	 0.0260	 0.1953	 0.1208	 0.1897	 0.1442	-0.0004	 0.0000	 0.1630	 0.0473	 0.2286	-0.0192	
   389	 0.3438	 0.1592	-0.0004	 0.0000	 0.2801	 0.0260	 0.2081	 0.1020	 0.1407	 0.1407	-0.0004	 0.0000	 0.1421	 0.0478	 0.2142	-0.0282	
   390	 0.6253	 0.0923	-0.0004	 0.0000	 0.3145	 0.0206	 0.2907	 0.0861	 0.1135	 0.1506	-0.0004	 0.0000	 0.1213	 0.0483	 0.2142	-0.0282	
   391	 0.7368	 0.0943	-0.0004	 0.0000	 0.2801	 0.0260	 0.2907	 0.0861	 0.1263	 0.1318	-0.0004	 0.0000	 0.1004	 0.0488	 0.1797	-0.0227	
   392	 0.5869	 0.1489	-0.0004	 0.0000	 0.2801	 0.0260	 0.2907	 0.0861	 0.1407	 0.1407	-0.0004	 0.0000	 0.0932	 0.0443	 0.1861	-0.0322	
   393	 0.4617	 0.1518	-0.0004	 0.0000	 0.2456	 0.0315	 0.2907	 0.0861	 0.1135	 0.1506	-0.0004	 0.0000	 0.0860	 0.0398	 0.1925	-0.0416	
   394	 0.4937	 0.1046	-0.0004	 0.0000	 0.1902	 0.0374	 0.2626	 0.0821	 0.1391	 0.1129	-0.0004	 0.0000	 0.0651	 0.0403	 0.1788	-0.0367	
   395	 0.4937	 0.1046	-0.0004	 0.0000	 0.1557	 0.0429	 0.2209	 0.0831	 0.1263	 0.1318	-0.0004	 0.0000	 0.0579	 0.0358	 0.1652	-0.0317	
   396	 0.4937	 0.1046	-0.0004	 0.0000	 0.1413	 0.0339	 0.1118	 0.1228	 0.0709	 0.1377	-0.0004	 0.0000	 0.0370	 0.0363	 0.1507	-0.0407	
   397	 0.3438	 0.1592	-0.0004	 0.0000	 0.1413	 0.0339	 0.1246	 0.1039	 0.0011	 0.1347	-0.0004	 0.0000	 0.0089	 0.0323	 0.1163	-0.0352	
   398	 0.4937	 0.1046	-0.0004	 0.0000	 0.1413	 0.0339	 0.1664	 0.1029	-0.0070	 0.1163	-0.0004	 0.0000	-0.0056	 0.0234	 0.1090	-0.0397	
   399	 0.7752	 0.0377	-0.0004	 0.0000	 0.1413	 0.0339	 0.1664	 0.1029	-0.0070	 0.1163	-0.0004	 0.0000	-0.0264	 0.0239	 0.0946	-0.0486	
   400	 0.6253	 0.0923	-0.0004	 0.0000	 0.1132	 0.0299	 0.1246	 0.1039	-0.0214	 0.1073	-0.0004	 0.0000	-0.0409	 0.0149	 0.0601	-0.0432	
   401	 0.3758	 0.1120	-0.0004	 0.0000	 0.0642	 0.0264	 0.0893	 0.0954	-0.0214	 0.1073	-0.0004	 0.0000	-0.0481	 0.0104	 0.0601	-0.0432	
   402	 0.3758	 0.1120	-0.0004	 0.0000	 0.0297	 0.0319	 0.0476	 0.0964	-0.0150	 0.0979	-0.0004	 0.0000	-0.0690	 0.0109	 0.0528	-0.0477	
   403	 0.5257	 0.0575	-0.0004	 0.0000	 0.0080	 0.0184	-0.0350	 0.1122	-0.0423	 0.1078	-0.0004	 0.0000	-0.0898	 0.0114	 0.0528	-0.0477	
   404	 0.3758	 0.1120	-0.0004	 0.0000	-0.0128	 0.0189	-0.0704	 0.1038	-0.0704	 0.1038	-0.0004	 0.0000	-0.1043	 0.0025	 0.0456	-0.0521	
   405	 0.3758	 0.1120	-0.0004	 0.0000	 0.0144	 0.0090	-0.1121	 0.1048	-0.0784	 0.0854	-0.0004	 0.0000	-0.1252	 0.0029	 0.0384	-0.0566	
   406	 0.3438	 0.1592	-0.0004	 0.0000	 0.0016	 0.0279	-0.0158	 0.0839	-0.0993	 0.0859	-0.0004	 0.0000	-0.1460	 0.0034	 0.0448	-0.0661	
   407	 0.3118	 0.2064	-0.0004	 0.0000	 0.0297	 0.0319	 0.0604	 0.0775	-0.0784	 0.0854	-0.0004	 0.0000	-0.1388	 0.0079	 0.0520	-0.0616	
   408	 0.3118	 0.2064	-0.0004	 0.0000	 0.0233	 0.0413	 0.0893	 0.0954	-0.0295	 0.0889	-0.0004	 0.0000	-0.1107	 0.0119	 0.0729	-0.0621	
   409	 0.1079	 0.1740	-0.0004	 0.0000	 0.0233	 0.0413	 0.0701	 0.1237	 0.0058	 0.0974	-0.0004	 0.0000	-0.0754	 0.0204	 0.1082	-0.0536	
   410	-0.0100	 0.1814	-0.0004	 0.0000	 0.0169	 0.0507	 0.1536	 0.1218	 0.0821	 0.0910	-0.0004	 0.0000	-0.0192	 0.0283	 0.1435	-0.0451	
   411	 0.1399	 0.1268	-0.0004	 0.0000	 0.0041	 0.0696	 0.1953	 0.1208	 0.1455	 0.1034	-0.0004	 0.0000	 0.0234	 0.0413	 0.1925	-0.0416	
   412	 0.3758	 0.1120	-0.0004	 0.0000	 0.0386	 0.0642	 0.3260	 0.0946	 0.1680	 0.1308	-0.0004	 0.0000	 0.0796	 0.0493	 0.2206	-0.0376	
   413	 0.4937	 0.1046	-0.0004	 0.0000	 0.0876	 0.0677	 0.3549	 0.1125	 0.1407	 0.1407	-0.0004	 0.0000	 0.1076	 0.0533	 0.2350	-0.0287	
   414	 0.6253	 0.0923	-0.0004	 0.0000	 0.1029	 0.0906	 0.3903	 0.1209	 0.1407	 0.1407	-0.0004	 0.0000	 0.1357	 0.0573	 0.2423	-0.0242	
   415	 0.7368	 0.0943	-0.0004	 0.0000	 0.1237	 0.0901	 0.4192	 0.1388	 0.2025	 0.1253	-0.0004	 0.0000	 0.1502	 0.0662	 0.2495	-0.0197	
   416	 1.0183	 0.0274	-0.0004	 0.0000	 0.1799	 0.0981	 0.5508	 0.1265	 0.2442	 0.1244	-0.0004	 0.0000	 0.1983	 0.0558	 0.2767	-0.0296	
   417	 0.7368	 0.0943	-0.0004	 0.0000	 0.2136	 0.0787	 0.5508	 0.1265	 0.2442	 0.1244	-0.0004	 0.0000	 0.2128	 0.0648	 0.2767	-0.0296	
   418	 0.7368	 0.0943	-0.0004	 0.0000	 0.2481	 0.0732	 0.5925	 0.1255	 0.2932	 0.1279	-0.0004	 0.0000	 0.2473	 0.0593	 0.2912	-0.0207	
   419	 0.7752	 0.0377	-0.0004	 0.0000	 0.2072	 0.0881	 0.5508	 0.1265	 0.3140	 0.1274	-0.0004	 0.0000	 0.2481	 0.0732	 0.3185	-0.0306	
   420	 0.9004	 0.0348	-0.0004	 0.0000	 0.2136	 0.0787	 0.5026	 0.1369	 0.3221	 0.1458	-0.0004	 0.0000	 0.2690	 0.0727	 0.3257	-0.0261	
   421	 0.7368	 0.0943	-0.0004	 0.0000	 0.2545	 0.0638	 0.4609	 0.1379	 0.2740	 0.1562	-0.0004	 0.0000	 0.2826	 0.0678	 0.3121	-0.0212	
   422	 0.7048	 0.1415	-0.0004	 0.0000	 0.3379	 0.0619	 0.5154	 0.1180	 0.2676	 0.1656	-0.0004	 0.0000	 0.2826	 0.0678	 0.3121	-0.0212	
   423	 0.8364	 0.1292	-0.0004	 0.0000	 0.4005	 0.0604	 0.5508	 0.1265	 0.3093	 0.1647	-0.0004	 0.0000	 0.2898	 0.0723	 0.3193	-0.0167	
   424	 0.8364	 0.1292	-0.0004	 0.0000	 0.4005	 0.0604	 0.5508	 0.1265	 0.2965	 0.1835	-0.0004	 0.0000	 0.2898	 0.0723	 0.3121	-0.0212	
   425	 0.7368	 0.0943	-0.0004	 0.0000	 0.3660	 0.0659	 0.5026	 0.1369	 0.2965	 0.1835	-0.0004	 0.0000	 0.3035	 0.0673	 0.3121	-0.0212	
   426	 0.5257	 0.0575	-0.0004	 0.0000	 0.3443	 0.0524	 0.4609	 0.1379	 0.2965	 0.1835	-0.0004	 0.0000	 0.3107	 0.0718	 0.3257	-0.0261	
   427	 0.5257	 0.0575	-0.0004	 0.0000	 0.3443	 0.0524	 0.5410	 0.0803	 0.3093	 0.1647	-0.0004	 0.0000	 0.3107	 0.0718	 0.3193	-0.0167	
   428	 0.4937	 0.1046	-0.0004	 0.0000	 0.2890	 0.0584	 0.4865	 0.1001	 0.3093	 0.1647	-0.0004	 0.0000	 0.2971	 0.0767	 0.3193	-0.0167	
   429	 0.7368	 0.0943	-0.0004	 0.0000	 0.3170	 0.0623	 0.4320	 0.1200	 0.2868	 0.1373	-0.0004	 0.0000	 0.2898	 0.0723	 0.3121	-0.0212	
   430	 0.5869	 0.1489	-0.0004	 0.0000	 0.3379	 0.0619	 0.4448	 0.1011	 0.2659	 0.1378	-0.0004	 0.0000	 0.2826	 0.0678	 0.3048	-0.0257	
   431	 0.8684	 0.0820	-0.0004	 0.0000	 0.3660	 0.0659	 0.4737	 0.1190	 0.2787	 0.1189	-0.0004	 0.0000	 0.2690	 0.0727	 0.2776	-0.0157	
   432	 0.8364	 0.1292	-0.0004	 0.0000	 0.4214	 0.0599	 0.5154	 0.1180	 0.3060	 0.1090	-0.0004	 0.0000	 0.2481	 0.0732	 0.2840	-0.0252	
   433	 0.8684	 0.0820	-0.0004	 0.0000	 0.4005	 0.0604	 0.5154	 0.1180	 0.3140	 0.1274	-0.0004	 0.0000	 0.2545	 0.0638	 0.2840	-0.0252	
   434	 0.6573	 0.0451	-0.0004	 0.0000	 0.3106	 0.0718	 0.4320	 0.1200	 0.3012	 0.1463	-0.0004	 0.0000	 0.2545	 0.0638	 0.2767	-0.0296	
   435	 0.5577	 0.0103	-0.0004	 0.0000	 0.2481	 0.0732	 0.3903	 0.1209	 0.3140	 0.1274	-0.0004	 0.0000	 0.2545	 0.0638	 0.2767	-0.0296	
   436	 0.7212	-0.0493	-0.0004	 0.0000	 0.2072	 0.0881	 0.3357	 0.1408	 0.3012	 0.1463	-0.0004	 0.0000	 0.2473	 0.0593	 0.2904	-0.0346	
   437	 0.7212	-0.0493	-0.0004	 0.0000	 0.1863	 0.0886	 0.2331	 0.1710	 0.2868	 0.1373	-0.0004	 0.0000	 0.2336	 0.0643	 0.2767	-0.0296	
   438	 0.6893	-0.0021	-0.0004	 0.0000	 0.1390	 0.1129	 0.2178	 0.1482	 0.1978	 0.1626	-0.0004	 0.0000	 0.2192	 0.0553	 0.2559	-0.0292	
   439	 0.9388	-0.0218	-0.0004	 0.0000	 0.1880	 0.1164	 0.2876	 0.1512	 0.1897	 0.1442	-0.0004	 0.0000	 0.1983	 0.0558	 0.2551	-0.0431	
   440	 1.0183	 0.0274	-0.0004	 0.0000	 0.2289	 0.1016	 0.3357	 0.1408	 0.1616	 0.1402	-0.0004	 0.0000	 0.1911	 0.0513	 0.2342	-0.0426	
   441	 0.7368	 0.0943	-0.0004	 0.0000	 0.1944	 0.1070	 0.3421	 0.1313	 0.1616	 0.1402	-0.0004	 0.0000	 0.1702	 0.0518	 0.2206	-0.0376	
   442	 0.5869	 0.1489	-0.0004	 0.0000	 0.1799	 0.0981	 0.3004	 0.1323	 0.1071	 0.1601	-0.0004	 0.0000	 0.1630	 0.0473	 0.2061	-0.0466	
   443	 0.3758	 0.1120	-0.0004	 0.0000	 0.1109	 0.1089	 0.2715	 0.1144	 0.1071	 0.1601	-0.0004	 0.0000	 0.1558	 0.0429	 0.2061	-0.0466	
   444	 0.2578	 0.1194	-0.0004	 0.0000	 0.0684	 0.0960	 0.2498	 0.1010	 0.1343	 0.1501	-0.0004	 0.0000	 0.1349	 0.0433	 0.2061	-0.0466	
   445	 0.3758	 0.1120	-0.0004	 0.0000	 0.0812	 0.0771	 0.2498	 0.1010	 0.1263	 0.1318	-0.0004	 0.0000	 0.1068	 0.0393	 0.1852	-0.0461	
   446	 0.3438	 0.1592	-0.0004	 0.0000	 0.0876	 0.0677	 0.2081	 0.1020	 0.1046	 0.1183	-0.0004	 0.0000	 0.0924	 0.0304	 0.1644	-0.0456	
   447	 0.4937	 0.1046	-0.0004	 0.0000	 0.1221	 0.0622	 0.2081	 0.1020	 0.0821	 0.0910	-0.0004	 0.0000	 0.0643	 0.0264	 0.1435	-0.0451	
   448	 0.5257	 0.0575	-0.0004	 0.0000	 0.1285	 0.0528	 0.1536	 0.1218	 0.0821	 0.0910	-0.0004	 0.0000	 0.0498	 0.0175	 0.1363	-0.0496	
   449	 0.5577	 0.0103	-0.0004	 0.0000	 0.1477	 0.0245	 0.1664	 0.1029	 0.0885	 0.0815	-0.0004	 0.0000	 0.0217	 0.0135	 0.1082	-0.0536	
   450	 0.4397	 0.0176	-0.0004	 0.0000	 0.1260	 0.0110	 0.1246	 0.1039	 0.0885	 0.0815	-0.0004	 0.0000	 0.0072	 0.0045	 0.0873	-0.0531	
   451	 0.1179	-0.0074	-0.0004	 0.0000	 0.0425	 0.0130	 0.1021	 0.0765	 0.0331	 0.0875	-0.0004	 0.0000	-0.0273	 0.0100	 0.0729	-0.0621	
   452	-0.0320	 0.0472	-0.0004	 0.0000	-0.0192	 0.0284	 0.0604	 0.0775	 0.0331	 0.0875	-0.0004	 0.0000	-0.0345	 0.0055	 0.0729	-0.0621	
   453	-0.0320	 0.0472	-0.0004	 0.0000	-0.0682	 0.0249	 0.0259	 0.0830	-0.0214	 0.1073	-0.0004	 0.0000	-0.0626	 0.0015	 0.0656	-0.0665	
   454	-0.0640	 0.0944	-0.0004	 0.0000	-0.1091	 0.0397	-0.0704	 0.1038	-0.0487	 0.1172	-0.0004	 0.0000	-0.0626	 0.0015	 0.0656	-0.0665	
   455	 0.0539	 0.0870	-0.0004	 0.0000	-0.0601	 0.0432	-0.0286	 0.1028	-0.0976	 0.1137	-0.0004	 0.0000	-0.0762	 0.0064	 0.0656	-0.0665	
   456	 0.3218	 0.0250	-0.0004	 0.0000	-0.0176	 0.0562	 0.0220	 0.1341	-0.0832	 0.1227	-0.0004	 0.0000	-0.0617	 0.0154	 0.0801	-0.0576	
   457	 0.5257	 0.0575	-0.0004	 0.0000	 0.0386	 0.0642	 0.1280	 0.1596	-0.0070	 0.1163	-0.0004	 0.0000	-0.0473	 0.0244	 0.0946	-0.0486	
   458	 0.5257	 0.0575	-0.0004	 0.0000	 0.0876	 0.0677	 0.2050	 0.1671	 0.0420	 0.1198	-0.0004	 0.0000	 0.0017	 0.0279	 0.1299	-0.0402	
   459	 0.4078	 0.0648	-0.0004	 0.0000	 0.0812	 0.0771	 0.2267	 0.1805	 0.0982	 0.1278	-0.0004	 0.0000	 0.0579	 0.0358	 0.1716	-0.0411	
   460	 0.3218	 0.0250	-0.0004	 0.0000	 0.0812	 0.0771	 0.2684	 0.1795	 0.1263	 0.1318	-0.0004	 0.0000	 0.1068	 0.0393	 0.1997	-0.0371	
   461	 0.5897	-0.0369	-0.0004	 0.0000	 0.0812	 0.0771	 0.3230	 0.1597	 0.1407	 0.1407	-0.0004	 0.0000	 0.1421	 0.0478	 0.2414	-0.0381	
   462	 0.5897	-0.0369	-0.0004	 0.0000	 0.1493	 0.0523	 0.3102	 0.1785	 0.2089	 0.1159	-0.0004	 0.0000	 0.1638	 0.0612	 0.2559	-0.0292	
   463	 0.7212	-0.0493	-0.0004	 0.0000	 0.1710	 0.0657	 0.3647	 0.1587	 0.2170	 0.1343	-0.0004	 0.0000	 0.2056	 0.0603	 0.2840	-0.0252	
   464	 0.6573	 0.0451	-0.0004	 0.0000	 0.2200	 0.0692	 0.4609	 0.1379	 0.1897	 0.1442	-0.0004	 0.0000	 0.2264	 0.0598	 0.2912	-0.0207	
   465	 0.6253	 0.0923	-0.0004	 0.0000	 0.2481	 0.0732	 0.5026	 0.1369	 0.2106	 0.1437	-0.0004	 0.0000	 0.2409	 0.0687	 0.3185	-0.0306	
   466	 0.5869	 0.1489	-0.0004	 0.0000	 0.3106	 0.0718	 0.5380	 0.1454	 0.2250	 0.1527	-0.0004	 0.0000	 0.2545	 0.0638	 0.3185	-0.0306	
   467	 0.5869	 0.1489	-0.0004	 0.0000	 0.3251	 0.0807	 0.5925	 0.1255	 0.2868	 0.1373	-0.0004	 0.0000	 0.2617	 0.0683	 0.3185	-0.0306	
   468	 0.4937	 0.1046	-0.0004	 0.0000	 0.3251	 0.0807	 0.4834	 0.1652	 0.3012	 0.1463	-0.0004	 0.0000	 0.2754	 0.0633	 0.3321	-0.0356	
   469	 0.3758	 0.1120	-0.0004	 0.0000	 0.3379	 0.0619	 0.4834	 0.1652	 0.3221	 0.1458	-0.0004	 0.0000	 0.2826	 0.0678	 0.3457	-0.0405	
   470	 0.4937	 0.1046	-0.0004	 0.0000	 0.2698	 0.0867	 0.4962	 0.1463	 0.3502	 0.1498	-0.0004	 0.0000	 0.2898	 0.0723	 0.3666	-0.0410	
   471	 0.4937	 0.1046	-0.0004	 0.0000	 0.2762	 0.0772	 0.4417	 0.1662	 0.3502	 0.1498	-0.0004	 0.0000	 0.3035	 0.0673	 0.3602	-0.0316	
   472	 0.4617	 0.1518	-0.0004	 0.0000	 0.3170	 0.0623	 0.4417	 0.1662	 0.3502	 0.1498	-0.0004	 0.0000	 0.2971	 0.0767	 0.3602	-0.0316	
   473	 0.6253	 0.0923	-0.0004	 0.0000	 0.3106	 0.0718	 0.4834	 0.1652	 0.3221	 0.1458	-0.0004	 0.0000	 0.2971	 0.0767	 0.3602	-0.0316	
   474	 0.5869	 0.1489	-0.0004	 0.0000	 0.3379	 0.0619	 0.5380	 0.1454	 0.3774	 0.1399	-0.0004	 0.0000	 0.2971	 0.0767	 0.3530	-0.0361	
   475	 0.5869	 0.1489	-0.0004	 0.0000	 0.3170	 0.0623	 0.5252	 0.1643	 0.3502	 0.1498	-0.0004	 0.0000	 0.2898	 0.0723	 0.3393	-0.0311	
   476	 0.4617	 0.1518	-0.0004	 0.0000	 0.2890	 0.0584	 0.4417	 0.1662	 0.3647	 0.1587	-0.0004	 0.0000	 0.2898	 0.0723	 0.3530	-0.0361	
   477	 0.3438	 0.1592	-0.0004	 0.0000	 0.2481	 0.0732	 0.4481	 0.1568	 0.3647	 0.1587	-0.0004	 0.0000	 0.2898	 0.0723	 0.3393	-0.0311	
   478	 0.3758	 0.1120	-0.0004	 0.0000	 0.1799	 0.0981	 0.4064	 0.1577	 0.3502	 0.1498	-0.0004	 0.0000	 0.2826	 0.0678	 0.3393	-0.0311	
   479	 0.4937	 0.1046	-0.0004	 0.0000	 0.1863	 0.0886	 0.3230	 0.1597	 0.3502	 0.1498	-0.0004	 0.0000	 0.2826	 0.0678	 0.3466	-0.0266	
   480	 0.5257	 0.0575	-0.0004	 0.0000	 0.2136	 0.0787	 0.3357	 0.1408	 0.3012	 0.1463	-0.0004	 0.0000	 0.2681	 0.0588	 0.3257	-0.0261	
   481	 0.5257	 0.0575	-0.0004	 0.0000	 0.2072	 0.0881	 0.3421	 0.1313	 0.3204	 0.1180	-0.0004	 0.0000	 0.2609	 0.0543	 0.3185	-0.0306	
   482	 0.6573	 0.0451	-0.0004	 0.0000	 0.2353	 0.0921	 0.3903	 0.1209	 0.3332	 0.0991	-0.0004	 0.0000	 0.2400	 0.0548	 0.3040	-0.0396	
   483	 0.6573	 0.0451	-0.0004	 0.0000	 0.2762	 0.0772	 0.4448	 0.1011	 0.3413	 0.1175	-0.0004	 0.0000	 0.2192	 0.0553	 0.2904	-0.0346	
   484	 0.5257	 0.0575	-0.0004	 0.0000	 0.2890	 0.0584	 0.3967	 0.1115	 0.3285	 0.1363	-0.0004	 0.0000	 0.2056	 0.0603	 0.2904	-0.0346	
   485	 0.2898	 0.0722	-0.0004	 0.0000	 0.2609	 0.0544	 0.3677	 0.0936	 0.3285	 0.1363	-0.0004	 0.0000	 0.1983	 0.0558	 0.2968	-0.0440	
   486	 0.4078	 0.0648	-0.0004	 0.0000	 0.2609	 0.0544	 0.3549	 0.1125	 0.3285	 0.1363	-0.0004	 0.0000	 0.2047	 0.0464	 0.2904	-0.0346	
   487	 0.4078	 0.0648	-0.0004	 0.0000	 0.2392	 0.0409	 0.3132	 0.1134	 0.2948	 0.1557	-0.0004	 0.0000	 0.1975	 0.0419	 0.2904	-0.0346	
   488	 0.4078	 0.0648	-0.0004	 0.0000	 0.2456	 0.0315	 0.2779	 0.1050	 0.2595	 0.1472	-0.0004	 0.0000	 0.1903	 0.0374	 0.2831	-0.0391	
   489	 0.5257	 0.0575	-0.0004	 0.0000	 0.2801	 0.0260	 0.3260	 0.0946	 0.2106	 0.1437	-0.0004	 0.0000	 0.1558	 0.0429	 0.2623	-0.0386	
   490	 0.4937	 0.1046	-0.0004	 0.0000	 0.2456	 0.0315	 0.2715	 0.1144	 0.2378	 0.1338	-0.0004	 0.0000	 0.1485	 0.0384	 0.2551	-0.0431	
   491	 0.3438	 0.1592	-0.0004	 0.0000	 0.2183	 0.0414	 0.2715	 0.1144	 0.2378	 0.1338	-0.0004	 0.0000	 0.1277	 0.0389	 0.2278	-0.0332	
   492	 0.2258	 0.1666	-0.0004	 0.0000	 0.1902	 0.0374	 0.2306	 0.1293	 0.2170	 0.1343	-0.0004	 0.0000	 0.1268	 0.0249	 0.2206	-0.0376	
   493	 0.2898	 0.0722	-0.0004	 0.0000	 0.1557	 0.0429	 0.2370	 0.1199	 0.2170	 0.1343	-0.0004	 0.0000	 0.1060	 0.0254	 0.2133	-0.0421	
   494	 0.4397	 0.0176	-0.0004	 0.0000	 0.1004	 0.0488	 0.1953	 0.1208	 0.2025	 0.1253	-0.0004	 0.0000	 0.0851	 0.0259	 0.1925	-0.0416	
   495	 0.2578	 0.1194	-0.0004	 0.0000	 0.0723	 0.0448	 0.0990	 0.1416	 0.1488	 0.1591	-0.0004	 0.0000	 0.0707	 0.0170	 0.1925	-0.0416	
   496	 0.1399	 0.1268	-0.0004	 0.0000	 0.0578	 0.0359	 0.0156	 0.1436	 0.1071	 0.1601	-0.0004	 0.0000	 0.0498	 0.0175	 0.1916	-0.0555	
   497	 0.1399	 0.1268	-0.0004	 0.0000	 0.0169	 0.0507	 0.0765	 0.1143	 0.0581	 0.1566	-0.0004	 0.0000	 0.0081	 0.0184	 0.1708	-0.0551	
   498	 0.1399	 0.1268	-0.0004	 0.0000	 0.0578	 0.0359	 0.1438	 0.0756	 0.0581	 0.1566	-0.0004	 0.0000	-0.0064	 0.0095	 0.1363	-0.0496	
   499	 0.2578	 0.1194	-0.0004	 0.0000	 0.0723	 0.0448	 0.1792	 0.0840	 0.0854	 0.1466	-0.0004	 0.0000	-0.0345	 0.0055	 0.1354	-0.0635	
   500	 0.1399	 0.1268	-0.0004	 0.0000	 0.0578	 0.0359	 0.1246	 0.1039	 0.0854	 0.1466	-0.0004	 0.0000	-0.0481	 0.0104	 0.1354	-0.0635	
   501	 0.2578	 0.1194	-0.0004	 0.0000	 0.0851	 0.0259	 0.2081	 0.1020	 0.0854	 0.1466	-0.0004	 0.0000	-0.0345	 0.0055	 0.1627	-0.0734	
   502	 0.4078	 0.0648	-0.0004	 0.0000	 0.0851	 0.0259	 0.2370	 0.1199	 0.1343	 0.1501	-0.0004	 0.0000	-0.0128	 0.0189	 0.2117	-0.0699	
   503	 0.3758	 0.1120	-0.0004	 0.0000	 0.0851	 0.0259	 0.2715	 0.1144	 0.1897	 0.1442	-0.0004	 0.0000	 0.0225	 0.0274	 0.2334	-0.0565	
   504	 0.4617	 0.1518	-0.0004	 0.0000	 0.1477	 0.0245	 0.3004	 0.1323	 0.2106	 0.1437	-0.0004	 0.0000	 0.0579	 0.0358	 0.2751	-0.0575	
   505	 0.4617	 0.1518	-0.0004	 0.0000	 0.1966	 0.0280	 0.2812	 0.1606	 0.2378	 0.1338	-0.0004	 0.0000	 0.0932	 0.0443	 0.3096	-0.0629	
   506	 0.2734	 0.2631	-0.0004	 0.0000	 0.1966	 0.0280	 0.3102	 0.1785	 0.2659	 0.1378	-0.0004	 0.0000	 0.1149	 0.0577	 0.3104	-0.0490	
   507	 0.4617	 0.1518	-0.0004	 0.0000	 0.2311	 0.0225	 0.3936	 0.1766	 0.2740	 0.1562	-0.0004	 0.0000	 0.1430	 0.0617	 0.3385	-0.0450	
   508	 0.3438	 0.1592	-0.0004	 0.0000	 0.2183	 0.0414	 0.3936	 0.1766	 0.3374	 0.1687	-0.0004	 0.0000	 0.1847	 0.0608	 0.3530	-0.0361	
   509	 0.3438	 0.1592	-0.0004	 0.0000	 0.2328	 0.0504	 0.4417	 0.1662	 0.3855	 0.1582	-0.0004	 0.0000	 0.2128	 0.0648	 0.3811	-0.0321	
   510	 0.6573	 0.0451	-0.0004	 0.0000	 0.2200	 0.0692	 0.4834	 0.1652	 0.4136	 0.1622	-0.0004	 0.0000	 0.2473	 0.0593	 0.4019	-0.0326	
   511	 0.9388	-0.0218	-0.0004	 0.0000	 0.2953	 0.0489	 0.5252	 0.1643	 0.4489	 0.1707	-0.0004	 0.0000	 0.2481	 0.0732	 0.4027	-0.0186	
   512	 0.9004	 0.0348	-0.0004	 0.0000	 0.3362	 0.0340	 0.5252	 0.1643	 0.4345	 0.1618	-0.0004	 0.0000	 0.2617	 0.0683	 0.4027	-0.0186	
   513	 0.9004	 0.0348	-0.0004	 0.0000	 0.3443	 0.0524	 0.6342	 0.1246	 0.3727	 0.1771	-0.0004	 0.0000	 0.2617	 0.0683	 0.3955	-0.0231	
   514	 0.9004	 0.0348	-0.0004	 0.0000	 0.3443	 0.0524	 0.6759	 0.1236	 0.3727	 0.1771	-0.0004	 0.0000	 0.2481	 0.0732	 0.3819	-0.0182	
   515	 0.7752	 0.0377	-0.0004	 0.0000	 0.3571	 0.0335	 0.6342	 0.1246	 0.3855	 0.1582	-0.0004	 0.0000	 0.2481	 0.0732	 0.3747	-0.0226	
   516	 0.7752	 0.0377	-0.0004	 0.0000	 0.3298	 0.0435	 0.5925	 0.1255	 0.3583	 0.1682	-0.0004	 0.0000	 0.2617	 0.0683	 0.3674	-0.0271	
   517	 0.5257	 0.0575	-0.0004	 0.0000	 0.2890	 0.0584	 0.5925	 0.1255	 0.3583	 0.1682	-0.0004	 0.0000	 0.2754	 0.0633	 0.3875	-0.0415	
   518	 0.4937	 0.1046	-0.0004	 0.0000	 0.2762	 0.0772	 0.5797	 0.1444	 0.4136	 0.1622	-0.0004	 0.0000	 0.2962	 0.0628	 0.4019	-0.0326	
   519	 0.6893	-0.0021	-0.0004	 0.0000	 0.2545	 0.0638	 0.4962	 0.1463	 0.4217	 0.1806	-0.0004	 0.0000	 0.2898	 0.0723	 0.4292	-0.0425	
   520	 0.8072	-0.0095	-0.0004	 0.0000	 0.2953	 0.0489	 0.5380	 0.1454	 0.4345	 0.1618	-0.0004	 0.0000	 0.2898	 0.0723	 0.4292	-0.0425	
   521	 0.8392	-0.0567	-0.0004	 0.0000	 0.3362	 0.0340	 0.4834	 0.1652	 0.4072	 0.1717	-0.0004	 0.0000	 0.2962	 0.0628	 0.4219	-0.0470	
   522	 0.8392	-0.0567	-0.0004	 0.0000	 0.3362	 0.0340	 0.4706	 0.1841	 0.4072	 0.1717	-0.0004	 0.0000	 0.2690	 0.0727	 0.4147	-0.0514	
   523	 0.8072	-0.0095	-0.0004	 0.0000	 0.3362	 0.0340	 0.4161	 0.2039	 0.3944	 0.1906	-0.0004	 0.0000	 0.2617	 0.0683	 0.4011	-0.0465	
   524	 0.6893	-0.0021	-0.0004	 0.0000	 0.3017	 0.0395	 0.4289	 0.1851	 0.3535	 0.2054	-0.0004	 0.0000	 0.2409	 0.0687	 0.3666	-0.0410	
   525	 0.6893	-0.0021	-0.0004	 0.0000	 0.3017	 0.0395	 0.4289	 0.1851	 0.3663	 0.1866	-0.0004	 0.0000	 0.2336	 0.0643	 0.3594	-0.0455	
   526	 0.6893	-0.0021	-0.0004	 0.0000	 0.2328	 0.0504	 0.4962	 0.1463	 0.3663	 0.1866	-0.0004	 0.0000	 0.2264	 0.0598	 0.3530	-0.0361	
   527	 0.4617	 0.1518	-0.0004	 0.0000	 0.2183	 0.0414	 0.4481	 0.1568	 0.4072	 0.1717	-0.0004	 0.0000	 0.2192	 0.0553	 0.3594	-0.0455	
   528	 0.4617	 0.1518	-0.0004	 0.0000	 0.2311	 0.0225	 0.4609	 0.1379	 0.3455	 0.1870	-0.0004	 0.0000	 0.2056	 0.0603	 0.3457	-0.0405	
   529	 0.4617	 0.1518	-0.0004	 0.0000	 0.2456	 0.0315	 0.5154	 0.1180	 0.3583	 0.1682	-0.0004	 0.0000	 0.1847	 0.0608	 0.3321	-0.0356	
   530	 0.4617	 0.1518	-0.0004	 0.0000	 0.2584	 0.0126	 0.4609	 0.1379	 0.3647	 0.1587	-0.0004	 0.0000	 0.1839	 0.0468	 0.3385	-0.0450	
   531	 0.4617	 0.1518	-0.0004	 0.0000	 0.2865	 0.0166	 0.5154	 0.1180	 0.3647	 0.1587	-0.0004	 0.0000	 0.1630	 0.0473	 0.3176	-0.0445	
   532	 0.4617	 0.1518	-0.0004	 0.0000	 0.2584	 0.0126	 0.5282	 0.0992	 0.3221	 0.1458	-0.0004	 0.0000	 0.1558	 0.0429	 0.2968	-0.0440	
   533	 0.4617	 0.1518	-0.0004	 0.0000	 0.1902	 0.0374	 0.4865	 0.1001	 0.3093	 0.1647	-0.0004	 0.0000	 0.1485	 0.0384	 0.2968	-0.0440	
   534	 0.5869	 0.1489	-0.0004	 0.0000	 0.1557	 0.0429	 0.4512	 0.0917	 0.2965	 0.1835	-0.0004	 0.0000	 0.1413	 0.0339	 0.3032	-0.0535	
   535	 0.7048	 0.1415	-0.0004	 0.0000	 0.1557	 0.0429	 0.3967	 0.1115	 0.2948	 0.1557	-0.0004	 0.0000	 0.1204	 0.0344	 0.2823	-0.0530	
   536	 0.5869	 0.1489	-0.0004	 0.0000	 0.1557	 0.0429	 0.3967	 0.1115	 0.2595	 0.1472	-0.0004	 0.0000	 0.1060	 0.0254	 0.2615	-0.0525	
   537	 0.5869	 0.1489	-0.0004	 0.0000	 0.1557	 0.0429	 0.3549	 0.1125	 0.2378	 0.1338	-0.0004	 0.0000	 0.0715	 0.0309	 0.2406	-0.0520	
   538	 0.6253	 0.0923	-0.0004	 0.0000	 0.1413	 0.0339	 0.3677	 0.0936	 0.2787	 0.1189	-0.0004	 0.0000	 0.0643	 0.0264	 0.2334	-0.0565	
   539	 0.4937	 0.1046	-0.0004	 0.0000	 0.1068	 0.0394	 0.3260	 0.0946	 0.2298	 0.1154	-0.0004	 0.0000	 0.0498	 0.0175	 0.2325	-0.0704	
   540	 0.3758	 0.1120	-0.0004	 0.0000	 0.0642	 0.0264	 0.2498	 0.1010	 0.2298	 0.1154	-0.0004	 0.0000	 0.0289	 0.0179	 0.2253	-0.0749	
   541	 0.4078	 0.0648	-0.0004	 0.0000	 0.0297	 0.0319	 0.1536	 0.1218	 0.2362	 0.1060	-0.0004	 0.0000	 0.0081	 0.0184	 0.2117	-0.0699	
   542	 0.5257	 0.0575	-0.0004	 0.0000	 0.0144	 0.0090	 0.1118	 0.1228	 0.2089	 0.1159	-0.0004	 0.0000	-0.0064	 0.0095	 0.1980	-0.0650	
   543	 0.5577	 0.0103	-0.0004	 0.0000	 0.0272	-0.0099	 0.0701	 0.1237	 0.1727	 0.0935	-0.0004	 0.0000	-0.0345	 0.0055	 0.1772	-0.0645	
   544	 0.4397	 0.0176	-0.0004	 0.0000	 0.0064	-0.0094	 0.0765	 0.1143	 0.1174	 0.0994	-0.0004	 0.0000	-0.0626	 0.0015	 0.1699	-0.0690	
   545	 0.5577	 0.0103	-0.0004	 0.0000	 0.0272	-0.0099	 0.1664	 0.1029	 0.1174	 0.0994	-0.0004	 0.0000	-0.0907	-0.0025	 0.1627	-0.0734	
   546	 0.5577	 0.0103	-0.0004	 0.0000	-0.0345	 0.0055	 0.1792	 0.0840	 0.0901	 0.1094	-0.0004	 0.0000	-0.1051	-0.0115	 0.1418	-0.0730	
   547	 0.4078	 0.0648	-0.0004	 0.0000	-0.0345	 0.0055	 0.1856	 0.0746	 0.0629	 0.1193	-0.0004	 0.0000	-0.1188	-0.0065	 0.1418	-0.0730	
   548	 0.1399	 0.1268	-0.0004	 0.0000	-0.0963	 0.0209	 0.1856	 0.0746	 0.0773	 0.1283	-0.0004	 0.0000	-0.1115	-0.0020	 0.1354	-0.0635	
   549	 0.2578	 0.1194	-0.0004	 0.0000	-0.0963	 0.0209	 0.2081	 0.1020	 0.0982	 0.1278	-0.0004	 0.0000	-0.0971	 0.0069	 0.1772	-0.0645	
   550	 0.3758	 0.1120	-0.0004	 0.0000	-0.0682	 0.0249	 0.2306	 0.1293	 0.1616	 0.1402	-0.0004	 0.0000	-0.0617	 0.0154	 0.1989	-0.0511	
   551	 0.3758	 0.1120	-0.0004	 0.0000	-0.0537	 0.0338	 0.2459	 0.1522	 0.2025	 0.1253	-0.0004	 0.0000	-0.0192	 0.0283	 0.2406	-0.0520	
   552	 0.6253	 0.0923	-0.0004	 0.0000	 0.0233	 0.0413	 0.3647	 0.1587	 0.2170	 0.1343	-0.0004	 0.0000	 0.0161	 0.0368	 0.2687	-0.0480	
   553	 0.7048	 0.1415	-0.0004	 0.0000	 0.1068	 0.0394	 0.4962	 0.1463	 0.3204	 0.1180	-0.0004	 0.0000	 0.0515	 0.0453	 0.2968	-0.0440	
   554	 0.6728	 0.1887	-0.0004	 0.0000	 0.1285	 0.0528	 0.5541	 0.1822	 0.3902	 0.1210	-0.0004	 0.0000	 0.0868	 0.0538	 0.3449	-0.0545	
   555	 0.5549	 0.1961	-0.0004	 0.0000	 0.1493	 0.0523	 0.6086	 0.1623	 0.4328	 0.1339	-0.0004	 0.0000	 0.1149	 0.0577	 0.3594	-0.0455	
   556	 0.3118	 0.2064	-0.0004	 0.0000	 0.1285	 0.0528	 0.5669	 0.1633	 0.4409	 0.1523	-0.0004	 0.0000	 0.1430	 0.0617	 0.3939	-0.0510	
   557	 0.3438	 0.1592	-0.0004	 0.0000	 0.0876	 0.0677	 0.5124	 0.1831	 0.4617	 0.1518	-0.0004	 0.0000	 0.1711	 0.0657	 0.4083	-0.0420	
   558	 0.4937	 0.1046	-0.0004	 0.0000	 0.1221	 0.0622	 0.5541	 0.1822	 0.4345	 0.1618	-0.0004	 0.0000	 0.1919	 0.0652	 0.4155	-0.0375	
   559	 0.4937	 0.1046	-0.0004	 0.0000	 0.1902	 0.0374	 0.6214	 0.1434	 0.4345	 0.1618	-0.0004	 0.0000	 0.2128	 0.0648	 0.4364	-0.0380	
   560	 0.4617	 0.1518	-0.0004	 0.0000	 0.2183	 0.0414	 0.6214	 0.1434	 0.4136	 0.1622	-0.0004	 0.0000	 0.2128	 0.0648	 0.4428	-0.0474	
   561	 0.7048	 0.1415	-0.0004	 0.0000	 0.2328	 0.0504	 0.6631	 0.1425	 0.5090	 0.1275	-0.0004	 0.0000	 0.2336	 0.0643	 0.4364	-0.0380	
   562	 0.8364	 0.1292	-0.0004	 0.0000	 0.2545	 0.0638	 0.7113	 0.1321	 0.5026	 0.1369	-0.0004	 0.0000	 0.2409	 0.0687	 0.4364	-0.0380	
   563	 0.5549	 0.1961	-0.0004	 0.0000	 0.2481	 0.0732	 0.7113	 0.1321	 0.5090	 0.1275	-0.0004	 0.0000	 0.2409	 0.0687	 0.4292	-0.0425	
   564	 0.4233	 0.2085	-0.0004	 0.0000	 0.2072	 0.0881	 0.6086	 0.1623	 0.5026	 0.1369	-0.0004	 0.0000	 0.2409	 0.0687	 0.4292	-0.0425	
   565	 0.4937	 0.1046	-0.0004	 0.0000	 0.1863	 0.0886	 0.5669	 0.1633	 0.5171	 0.1459	-0.0004	 0.0000	 0.2617	 0.0683	 0.4428	-0.0474	
   566	 0.3758	 0.1120	-0.0004	 0.0000	 0.1646	 0.0752	 0.5124	 0.1831	 0.5107	 0.1553	-0.0004	 0.0000	 0.2553	 0.0777	 0.4500	-0.0430	
   567	 0.5257	 0.0575	-0.0004	 0.0000	 0.2055	 0.0603	 0.4706	 0.1841	 0.5107	 0.1553	-0.0004	 0.0000	 0.2553	 0.0777	 0.4500	-0.0430	
   568	 0.5257	 0.0575	-0.0004	 0.0000	 0.1927	 0.0792	 0.4289	 0.1851	 0.4898	 0.1558	-0.0004	 0.0000	 0.2617	 0.0683	 0.4364	-0.0380	
   569	 0.4937	 0.1046	-0.0004	 0.0000	 0.1927	 0.0792	 0.4834	 0.1652	 0.4898	 0.1558	-0.0004	 0.0000	 0.2545	 0.0638	 0.4364	-0.0380	
   570	 0.4617	 0.1518	-0.0004	 0.0000	 0.2136	 0.0787	 0.5252	 0.1643	 0.4617	 0.1518	-0.0004	 0.0000	 0.2473	 0.0593	 0.4155	-0.0375	
   571	 0.4233	 0.2085	-0.0004	 0.0000	 0.2072	 0.0881	 0.5669	 0.1633	 0.4425	 0.1801	-0.0004	 0.0000	 0.2473	 0.0593	 0.4019	-0.0326	
   572	 0.4617	 0.1518	-0.0004	 0.0000	 0.2072	 0.0881	 0.5380	 0.1454	 0.4489	 0.1707	-0.0004	 0.0000	 0.2336	 0.0643	 0.4019	-0.0326	
   573	 0.3758	 0.1120	-0.0004	 0.0000	 0.2200	 0.0692	 0.4481	 0.1568	 0.4425	 0.1801	-0.0004	 0.0000	 0.2400	 0.0548	 0.4019	-0.0326	
   574	 0.4937	 0.1046	-0.0004	 0.0000	 0.2328	 0.0504	 0.4481	 0.1568	 0.4489	 0.1707	-0.0004	 0.0000	 0.2264	 0.0598	 0.4019	-0.0326	
   575	 0.6253	 0.0923	-0.0004	 0.0000	 0.2392	 0.0409	 0.4064	 0.1577	 0.4425	 0.1801	-0.0004	 0.0000	 0.2328	 0.0504	 0.4019	-0.0326	
   576	 0.7368	 0.0943	-0.0004	 0.0000	 0.2737	 0.0355	 0.4064	 0.1577	 0.3663	 0.1866	-0.0004	 0.0000	 0.2056	 0.0603	 0.4011	-0.0465	
   577	 0.5869	 0.1489	-0.0004	 0.0000	 0.2737	 0.0355	 0.4609	 0.1379	 0.3727	 0.1771	-0.0004	 0.0000	 0.1983	 0.0558	 0.3875	-0.0415	
   578	 0.7368	 0.0943	-0.0004	 0.0000	 0.2545	 0.0638	 0.5026	 0.1369	 0.3374	 0.1687	-0.0004	 0.0000	 0.1775	 0.0563	 0.3666	-0.0410	
   579	 0.7752	 0.0377	-0.0004	 0.0000	 0.2200	 0.0692	 0.5154	 0.1180	 0.3374	 0.1687	-0.0004	 0.0000	 0.1566	 0.0568	 0.3594	-0.0455	
   580	 0.4937	 0.1046	-0.0004	 0.0000	 0.1927	 0.0792	 0.5154	 0.1180	 0.3502	 0.1498	-0.0004	 0.0000	 0.1494	 0.0523	 0.3457	-0.0405	
   581	 0.2578	 0.1194	-0.0004	 0.0000	 0.1365	 0.0712	 0.4320	 0.1200	 0.3374	 0.1687	-0.0004	 0.0000	 0.1421	 0.0478	 0.3321	-0.0356	
   582	 0.2898	 0.0722	-0.0004	 0.0000	 0.1093	 0.0811	 0.3967	 0.1115	 0.3221	 0.1458	-0.0004	 0.0000	 0.1076	 0.0533	 0.3321	-0.0356	
   583	 0.5257	 0.0575	-0.0004	 0.0000	 0.1221	 0.0622	 0.3421	 0.1313	 0.3012	 0.1463	-0.0004	 0.0000	 0.1068	 0.0393	 0.3112	-0.0351	
   584	 0.5257	 0.0575	-0.0004	 0.0000	 0.1285	 0.0528	 0.2587	 0.1333	 0.2868	 0.1373	-0.0004	 0.0000	 0.0924	 0.0304	 0.2904	-0.0346	
   585	 0.3758	 0.1120	-0.0004	 0.0000	 0.1285	 0.0528	 0.2779	 0.1050	 0.2659	 0.1378	-0.0004	 0.0000	 0.0579	 0.0358	 0.2831	-0.0391	
   586	 0.4937	 0.1046	-0.0004	 0.0000	 0.1557	 0.0429	 0.3260	 0.0946	 0.2787	 0.1189	-0.0004	 0.0000	 0.0434	 0.0269	 0.2687	-0.0480	
   587	 0.4617	 0.1518	-0.0004	 0.0000	 0.1557	 0.0429	 0.3260	 0.0946	 0.2787	 0.1189	-0.0004	 0.0000	 0.0225	 0.0274	 0.2687	-0.0480	
   588	 0.3118	 0.2064	-0.0004	 0.0000	 0.1413	 0.0339	 0.3324	 0.0851	 0.2659	 0.1378	-0.0004	 0.0000	 0.0017	 0.0279	 0.2478	-0.0476	
   589	 0.2258	 0.1666	-0.0004	 0.0000	 0.0851	 0.0259	 0.2626	 0.0821	 0.2106	 0.1437	-0.0004	 0.0000	-0.0128	 0.0189	 0.2334	-0.0565	
   590	 0.2578	 0.1194	-0.0004	 0.0000	 0.0297	 0.0319	 0.2209	 0.0831	 0.1897	 0.1442	-0.0004	 0.0000	-0.0337	 0.0194	 0.2398	-0.0659	
   591	 0.2258	 0.1666	-0.0004	 0.0000	-0.0256	 0.0378	 0.1792	 0.0840	 0.2025	 0.1253	-0.0004	 0.0000	-0.0545	 0.0199	 0.2189	-0.0655	
   592	 0.2258	 0.1666	-0.0004	 0.0000	-0.0601	 0.0432	 0.1246	 0.1039	 0.1135	 0.1506	-0.0004	 0.0000	-0.0690	 0.0109	 0.2053	-0.0605	
   593	 0.2578	 0.1194	-0.0004	 0.0000	-0.0537	 0.0338	 0.0765	 0.1143	 0.0709	 0.1377	-0.0004	 0.0000	-0.0971	 0.0069	 0.1844	-0.0600	
   594	 0.3758	 0.1120	-0.0004	 0.0000	-0.0682	 0.0249	 0.0765	 0.1143	 0.0356	 0.1292	-0.0004	 0.0000	-0.1388	 0.0079	 0.1699	-0.0690	
   595	 0.2258	 0.1666	-0.0004	 0.0000	-0.0682	 0.0249	 0.1118	 0.1228	 0.0693	 0.1099	-0.0004	 0.0000	-0.1669	 0.0039	 0.1418	-0.0730	
   596	 0.1938	 0.2138	-0.0004	 0.0000	-0.0409	 0.0149	 0.1118	 0.1228	 0.0629	 0.1193	-0.0004	 0.0000	-0.1813	-0.0050	 0.1418	-0.0730	
   597	 0.0759	 0.2212	-0.0004	 0.0000	-0.0618	 0.0154	 0.1792	 0.0840	 0.0629	 0.1193	-0.0004	 0.0000	-0.1813	-0.0050	 0.1482	-0.0824	
   598	 0.0759	 0.2212	-0.0004	 0.0000	-0.0554	 0.0060	 0.1536	 0.1218	 0.0982	 0.1278	-0.0004	 0.0000	-0.1605	-0.0055	 0.1691	-0.0829	
   599	 0.1938	 0.2138	-0.0004	 0.0000	-0.0554	 0.0060	 0.1953	 0.1208	 0.1535	 0.1218	-0.0004	 0.0000	-0.1524	 0.0129	 0.1908	-0.0695	
   600	 0.1938	 0.2138	-0.0004	 0.0000	-0.0618	 0.0154	 0.2306	 0.1293	 0.1680	 0.1308	-0.0004	 0.0000	-0.1035	 0.0164	 0.2325	-0.0704	
   601	 0.1938	 0.2138	-0.0004	 0.0000	-0.0128	 0.0189	 0.3004	 0.1323	 0.1680	 0.1308	-0.0004	 0.0000	-0.0681	 0.0248	 0.2470	-0.0615	
   602	 0.3118	 0.2064	-0.0004	 0.0000	 0.0297	 0.0319	 0.3647	 0.1587	 0.2442	 0.1244	-0.0004	 0.0000	-0.0256	 0.0378	 0.2887	-0.0624	
   603	 0.3118	 0.2064	-0.0004	 0.0000	 0.0233	 0.0413	 0.4609	 0.1379	 0.3140	 0.1274	-0.0004	 0.0000	 0.0097	 0.0463	 0.3104	-0.0490	
   604	 0.3118	 0.2064	-0.0004	 0.0000	 0.0578	 0.0359	 0.5572	 0.1171	 0.3093	 0.1647	-0.0004	 0.0000	 0.0515	 0.0453	 0.3449	-0.0545	
   605	 0.4617	 0.1518	-0.0004	 0.0000	 0.0723	 0.0448	 0.5925	 0.1255	 0.3310	 0.1781	-0.0004	 0.0000	 0.0932	 0.0443	 0.3594	-0.0455	
   606	 0.4617	 0.1518	-0.0004	 0.0000	 0.1068	 0.0394	 0.6342	 0.1246	 0.3727	 0.1771	-0.0004	 0.0000	 0.1076	 0.0533	 0.3802	-0.0460	
   607	 0.5869	 0.1489	-0.0004	 0.0000	 0.1004	 0.0488	 0.6887	 0.1047	 0.4136	 0.1622	-0.0004	 0.0000	 0.1357	 0.0573	 0.4147	-0.0514	
   608	 0.7368	 0.0943	-0.0004	 0.0000	 0.1557	 0.0429	 0.6887	 0.1047	 0.4136	 0.1622	-0.0004	 0.0000	 0.1430	 0.0617	 0.4219	-0.0470	
   609	 0.8364	 0.1292	-0.0004	 0.0000	 0.1774	 0.0563	 0.6887	 0.1047	 0.4136	 0.1622	-0.0004	 0.0000	 0.1574	 0.0707	 0.4356	-0.0519	
   610	 0.9863	 0.0746	-0.0004	 0.0000	 0.2328	 0.0504	 0.7585	 0.1077	 0.4345	 0.1618	-0.0004	 0.0000	 0.1711	 0.0657	 0.4356	-0.0519	
   611	 0.9863	 0.0746	-0.0004	 0.0000	 0.2328	 0.0504	 0.7521	 0.1172	 0.4617	 0.1518	-0.0004	 0.0000	 0.1711	 0.0657	 0.4147	-0.0514	
   612	 1.0183	 0.0274	-0.0004	 0.0000	 0.2328	 0.0504	 0.7113	 0.1321	 0.4898	 0.1558	-0.0004	 0.0000	 0.1847	 0.0608	 0.4211	-0.0609	
   613	 0.7368	 0.0943	-0.0004	 0.0000	 0.2119	 0.0509	 0.6631	 0.1425	 0.4834	 0.1653	-0.0004	 0.0000	 0.1983	 0.0558	 0.4283	-0.0564	
   614	 0.7752	 0.0377	-0.0004	 0.0000	 0.1902	 0.0374	 0.5669	 0.1633	 0.4979	 0.1742	-0.0004	 0.0000	 0.2120	 0.0508	 0.4356	-0.0519	
   615	 0.7368	 0.0943	-0.0004	 0.0000	 0.1902	 0.0374	 0.5252	 0.1643	 0.4979	 0.1742	-0.0004	 0.0000	 0.2192	 0.0553	 0.4292	-0.0425	
   616	 0.7368	 0.0943	-0.0004	 0.0000	 0.2183	 0.0414	 0.4706	 0.1841	 0.4979	 0.1742	-0.0004	 0.0000	 0.2192	 0.0553	 0.4428	-0.0474	
   617	 0.7368	 0.0943	-0.0004	 0.0000	 0.2456	 0.0315	 0.5252	 0.1643	 0.4706	 0.1841	-0.0004	 0.0000	 0.2128	 0.0648	 0.4364	-0.0380	
   618	 0.7368	 0.0943	-0.0004	 0.0000	 0.2392	 0.0409	 0.5797	 0.1444	 0.4706	 0.1841	-0.0004	 0.0000	 0.2128	 0.0648	 0.4428	-0.0474	
   619	 0.9004	 0.0348	-0.0004	 0.0000	 0.2328	 0.0504	 0.6214	 0.1434	 0.4706	 0.1841	-0.0004	 0.0000	 0.2192	 0.0553	 0.4292	-0.0425	
   620	 0.8072	-0.0095	-0.0004	 0.0000	 0.2055	 0.0603	 0.5252	 0.1643	 0.4706	 0.1841	-0.0004	 0.0000	 0.2056	 0.0603	 0.4083	-0.0420	
   621	 0.6573	 0.0451	-0.0004	 0.0000	 0.2055	 0.0603	 0.5380	 0.1454	 0.4834	 0.1653	-0.0004	 0.0000	 0.1919	 0.0652	 0.4147	-0.0514	
   622	 0.6573	 0.0451	-0.0004	 0.0000	 0.1646	 0.0752	 0.4834	 0.1652	 0.4489	 0.1707	-0.0004	 0.0000	 0.1847	 0.0608	 0.4147	-0.0514	
   623	 0.7368	 0.0943	-0.0004	 0.0000	 0.1646	 0.0752	 0.5508	 0.1265	 0.4489	 0.1707	-0.0004	 0.0000	 0.1847	 0.0608	 0.4147	-0.0514	
   624	 0.6573	 0.0451	-0.0004	 0.0000	 0.1301	 0.0806	 0.4609	 0.1379	 0.4217	 0.1806	-0.0004	 0.0000	 0.1638	 0.0612	 0.3939	-0.0510	
   625	 0.6253	 0.0923	-0.0004	 0.0000	 0.1646	 0.0752	 0.5154	 0.1180	 0.4072	 0.1717	-0.0004	 0.0000	 0.1566	 0.0568	 0.3666	-0.0410	
   626	 0.6253	 0.0923	-0.0004	 0.0000	 0.1646	 0.0752	 0.5154	 0.1180	 0.3855	 0.1582	-0.0004	 0.0000	 0.1421	 0.0478	 0.3594	-0.0455	
   627	 0.6253	 0.0923	-0.0004	 0.0000	 0.1301	 0.0806	 0.4609	 0.1379	 0.3855	 0.1582	-0.0004	 0.0000	 0.1349	 0.0433	 0.3385	-0.0450	
   628	 0.4617	 0.1518	-0.0004	 0.0000	 0.1301	 0.0806	 0.4192	 0.1388	 0.3919	 0.1488	-0.0004	 0.0000	 0.1140	 0.0438	 0.3313	-0.0495	
   629	 0.3758	 0.1120	-0.0004	 0.0000	 0.1221	 0.0622	 0.3903	 0.1209	 0.3919	 0.1488	-0.0004	 0.0000	 0.1004	 0.0488	 0.3377	-0.0589	
   630	 0.4937	 0.1046	-0.0004	 0.0000	 0.1285	 0.0528	 0.3775	 0.1398	 0.3774	 0.1399	-0.0004	 0.0000	 0.0932	 0.0443	 0.3377	-0.0589	
   631	 0.4937	 0.1046	-0.0004	 0.0000	 0.1004	 0.0488	 0.3357	 0.1408	 0.3774	 0.1399	-0.0004	 0.0000	 0.0860	 0.0398	 0.3377	-0.0589	
   632	 0.6253	 0.0923	-0.0004	 0.0000	 0.1068	 0.0394	 0.3004	 0.1323	 0.3694	 0.1215	-0.0004	 0.0000	 0.0651	 0.0403	 0.3240	-0.0540	
   633	 0.6253	 0.0923	-0.0004	 0.0000	 0.0659	 0.0543	 0.2459	 0.1522	 0.3140	 0.1274	-0.0004	 0.0000	 0.0442	 0.0408	 0.3032	-0.0535	
   634	 0.6573	 0.0451	-0.0004	 0.0000	 0.0659	 0.0543	 0.2715	 0.1144	 0.3204	 0.1180	-0.0004	 0.0000	 0.0097	 0.0463	 0.3096	-0.0629	
   635	 0.4937	 0.1046	-0.0004	 0.0000	 0.0450	 0.0547	 0.2370	 0.1199	 0.2932	 0.1279	-0.0004	 0.0000	-0.0047	 0.0373	 0.2887	-0.0624	
   636	 0.4937	 0.1046	-0.0004	 0.0000	 0.0169	 0.0507	 0.1825	 0.1397	 0.2932	 0.1279	-0.0004	 0.0000	-0.0192	 0.0283	 0.2606	-0.0664	
   637	 0.3758	 0.1120	-0.0004	 0.0000	-0.0384	 0.0567	 0.0990	 0.1416	 0.2378	 0.1338	-0.0004	 0.0000	-0.0537	 0.0338	 0.2470	-0.0615	
   638	 0.4078	 0.0648	-0.0004	 0.0000	-0.0665	 0.0527	 0.0573	 0.1426	 0.2170	 0.1343	-0.0004	 0.0000	-0.0681	 0.0248	 0.2325	-0.0704	
   639	 0.5257	 0.0575	-0.0004	 0.0000	-0.0938	 0.0626	 0.0028	 0.1625	 0.2025	 0.1253	-0.0004	 0.0000	-0.0962	 0.0208	 0.2117	-0.0699	
   640	 0.5257	 0.0575	-0.0004	 0.0000	-0.0874	 0.0532	-0.0253	 0.1585	 0.1263	 0.1318	-0.0004	 0.0000	-0.1107	 0.0119	 0.1908	-0.0695	
   641	 0.4937	 0.1046	-0.0004	 0.0000	-0.0874	 0.0532	 0.0220	 0.1341	 0.1046	 0.1183	-0.0004	 0.0000	-0.1388	 0.0079	 0.1763	-0.0784	
   642	 0.2578	 0.1194	-0.0004	 0.0000	-0.1500	 0.0546	-0.0478	 0.1311	 0.0901	 0.1094	-0.0004	 0.0000	-0.1597	 0.0084	 0.1555	-0.0779	
   643	 0.3758	 0.1120	-0.0004	 0.0000	-0.1500	 0.0546	 0.0067	 0.1113	 0.0693	 0.1099	-0.0004	 0.0000	-0.1877	 0.0044	 0.1346	-0.0774	
   644	 0.0759	 0.2212	-0.0004	 0.0000	-0.1644	 0.0457	 0.0259	 0.0830	 0.0821	 0.0910	-0.0004	 0.0000	-0.2086	 0.0049	 0.1138	-0.0770	
   645	-0.0740	 0.2758	-0.0004	 0.0000	-0.1861	 0.0322	-0.0158	 0.0839	 0.0548	 0.1009	-0.0004	 0.0000	-0.2158	 0.0004	 0.1065	-0.0814	
   646	-0.0420	 0.2286	-0.0004	 0.0000	-0.2142	 0.0282	-0.0993	 0.0859	 0.0203	 0.1064	-0.0004	 0.0000	-0.2303	-0.0086	 0.0929	-0.0765	
   647	 0.1079	 0.1740	-0.0004	 0.0000	-0.2696	 0.0342	-0.1474	 0.0963	 0.0203	 0.1064	-0.0004	 0.0000	-0.2512	-0.0081	 0.0857	-0.0809	
   648	 0.2258	 0.1666	-0.0004	 0.0000	-0.2287	 0.0193	-0.1538	 0.1057	 0.0331	 0.0875	-0.0004	 0.0000	-0.2720	-0.0076	 0.0857	-0.0809	
   649	 0.3758	 0.1120	-0.0004	 0.0000	-0.2014	 0.0094	-0.1121	 0.1048	 0.0122	 0.0880	-0.0004	 0.0000	-0.2784	 0.0019	 0.0857	-0.0809	
   650	 0.1079	 0.1740	-0.0004	 0.0000	-0.2351	 0.0287	-0.0895	 0.1321	 0.0122	 0.0880	-0.0004	 0.0000	-0.2503	 0.0058	 0.1065	-0.0814	
   651	 0.0759	 0.2212	-0.0004	 0.0000	-0.2142	 0.0282	 0.0156	 0.1436	 0.0203	 0.1064	-0.0004	 0.0000	-0.2222	 0.0098	 0.1346	-0.0774	
   652	-0.0420	 0.2286	-0.0004	 0.0000	-0.2270	 0.0471	 0.0317	 0.1804	 0.0501	 0.1382	-0.0004	 0.0000	-0.1797	 0.0228	 0.1900	-0.0834	
   653	-0.1600	 0.2360	-0.0004	 0.0000	-0.2053	 0.0606	 0.0542	 0.2077	 0.1263	 0.1318	-0.0004	 0.0000	-0.1235	 0.0308	 0.2117	-0.0699	
   654	-0.1280	 0.1888	-0.0004	 0.0000	-0.2117	 0.0700	 0.1505	 0.1869	 0.1680	 0.1308	-0.0004	 0.0000	-0.0946	 0.0487	 0.2398	-0.0659	
   655	-0.0100	 0.1814	-0.0004	 0.0000	-0.1772	 0.0646	 0.2331	 0.1710	 0.2378	 0.1338	-0.0004	 0.0000	-0.0592	 0.0571	 0.2751	-0.0575	
   656	 0.0759	 0.2212	-0.0004	 0.0000	-0.1219	 0.0586	 0.2876	 0.1512	 0.2787	 0.1189	-0.0004	 0.0000	-0.0248	 0.0517	 0.2751	-0.0575	
   657	 0.3118	 0.2064	-0.0004	 0.0000	-0.0384	 0.0567	 0.3775	 0.1398	 0.2787	 0.1189	-0.0004	 0.0000	-0.0103	 0.0607	 0.2959	-0.0580	
   658	 0.4233	 0.2085	-0.0004	 0.0000	-0.0240	 0.0656	 0.4737	 0.1190	 0.2787	 0.1189	-0.0004	 0.0000	 0.0242	 0.0552	 0.2959	-0.0580	
   659	 0.4233	 0.2085	-0.0004	 0.0000	 0.0450	 0.0547	 0.5154	 0.1180	 0.2932	 0.1279	-0.0004	 0.0000	 0.0314	 0.0597	 0.3096	-0.0629	
   660	 0.4617	 0.1518	-0.0004	 0.0000	 0.0169	 0.0507	 0.4737	 0.1190	 0.3140	 0.1274	-0.0004	 0.0000	 0.0451	 0.0547	 0.2959	-0.0580	
   661	 0.3438	 0.1592	-0.0004	 0.0000	-0.0176	 0.0562	 0.3775	 0.1398	 0.3012	 0.1463	-0.0004	 0.0000	 0.0523	 0.0592	 0.3096	-0.0629	
   662	 0.3438	 0.1592	-0.0004	 0.0000	-0.0176	 0.0562	 0.3903	 0.1209	 0.3012	 0.1463	-0.0004	 0.0000	 0.0796	 0.0493	 0.3096	-0.0629	
   663	 0.4937	 0.1046	-0.0004	 0.0000	-0.0448	 0.0661	 0.3421	 0.1313	 0.3285	 0.1363	-0.0004	 0.0000	 0.0732	 0.0587	 0.3168	-0.0585	
   664	 0.7752	 0.0377	-0.0004	 0.0000	 0.0233	 0.0413	 0.3421	 0.1313	 0.3502	 0.1498	-0.0004	 0.0000	 0.0868	 0.0538	 0.3240	-0.0540	
   665	 0.7752	 0.0377	-0.0004	 0.0000	 0.0578	 0.0359	 0.3903	 0.1209	 0.2965	 0.1835	-0.0004	 0.0000	 0.0804	 0.0632	 0.3240	-0.0540	
   666	 0.9004	 0.0348	-0.0004	 0.0000	 0.0659	 0.0543	 0.4865	 0.1001	 0.3374	 0.1687	-0.0004	 0.0000	 0.0804	 0.0632	 0.3240	-0.0540	
   667	 0.9004	 0.0348	-0.0004	 0.0000	 0.1004	 0.0488	 0.5282	 0.0992	 0.3374	 0.1687	-0.0004	 0.0000	 0.0804	 0.0632	 0.2968	-0.0440	
   668	 0.8684	 0.0820	-0.0004	 0.0000	 0.1221	 0.0622	 0.5700	 0.0982	 0.3374	 0.1687	-0.0004	 0.0000	 0.0804	 0.0632	 0.3032	-0.0535	
   669	 0.8684	 0.0820	-0.0004	 0.0000	 0.1221	 0.0622	 0.5154	 0.1180	 0.3583	 0.1682	-0.0004	 0.0000	 0.0804	 0.0632	 0.2959	-0.0580	
   670	 0.5869	 0.1489	-0.0004	 0.0000	 0.1004	 0.0488	 0.4865	 0.1001	 0.3374	 0.1687	-0.0004	 0.0000	 0.1004	 0.0488	 0.2959	-0.0580	
   671	 0.4937	 0.1046	-0.0004	 0.0000	 0.0450	 0.0547	 0.3903	 0.1209	 0.3093	 0.1647	-0.0004	 0.0000	 0.1004	 0.0488	 0.2887	-0.0624	
   672	 0.6253	 0.0923	-0.0004	 0.0000	 0.0169	 0.0507	 0.3421	 0.1313	 0.3093	 0.1647	-0.0004	 0.0000	 0.0868	 0.0538	 0.2959	-0.0580	
   673	 0.6253	 0.0923	-0.0004	 0.0000	 0.0169	 0.0507	 0.3004	 0.1323	 0.2948	 0.1557	-0.0004	 0.0000	 0.0796	 0.0493	 0.2887	-0.0624	
   674	 0.4937	 0.1046	-0.0004	 0.0000	 0.0578	 0.0359	 0.3132	 0.1134	 0.2250	 0.1527	-0.0004	 0.0000	 0.0587	 0.0498	 0.2815	-0.0669	
   675	 0.3438	 0.1592	-0.0004	 0.0000	 0.0851	 0.0259	 0.3132	 0.1134	 0.2250	 0.1527	-0.0004	 0.0000	 0.0515	 0.0453	 0.2542	-0.0570	
   676	 0.2258	 0.1666	-0.0004	 0.0000	 0.0851	 0.0259	 0.3004	 0.1323	 0.2250	 0.1527	-0.0004	 0.0000	 0.0442	 0.0408	 0.2406	-0.0520	
   677	 0.2258	 0.1666	-0.0004	 0.0000	 0.0578	 0.0359	 0.3132	 0.1134	 0.2659	 0.1378	-0.0004	 0.0000	 0.0234	 0.0413	 0.2334	-0.0565	
   678	 0.3438	 0.1592	-0.0004	 0.0000	 0.0450	 0.0547	 0.3004	 0.1323	 0.2378	 0.1338	-0.0004	 0.0000	 0.0097	 0.0463	 0.2334	-0.0565	
   679	 0.3438	 0.1592	-0.0004	 0.0000	 0.0041	 0.0696	 0.3260	 0.0946	 0.2442	 0.1244	-0.0004	 0.0000	 0.0025	 0.0418	 0.2334	-0.0565	
   680	 0.4937	 0.1046	-0.0004	 0.0000	-0.0448	 0.0661	 0.2715	 0.1144	 0.2298	 0.1154	-0.0004	 0.0000	-0.0047	 0.0373	 0.2334	-0.0565	
   681	 0.6253	 0.0923	-0.0004	 0.0000	-0.0176	 0.0562	 0.2779	 0.1050	 0.2170	 0.1343	-0.0004	 0.0000	-0.0120	 0.0328	 0.2334	-0.0565	
   682	 0.6253	 0.0923	-0.0004	 0.0000	-0.0384	 0.0567	 0.2626	 0.0821	 0.2025	 0.1253	-0.0004	 0.0000	-0.0328	 0.0333	 0.2462	-0.0754	
   683	 0.6253	 0.0923	-0.0004	 0.0000	-0.0112	 0.0468	 0.2754	 0.0632	 0.1680	 0.1308	-0.0004	 0.0000	-0.0537	 0.0338	 0.2117	-0.0699	
   684	 0.4617	 0.1518	-0.0004	 0.0000	-0.0112	 0.0468	 0.2754	 0.0632	 0.1535	 0.1218	-0.0004	 0.0000	-0.0745	 0.0343	 0.2044	-0.0744	
   685	 0.6253	 0.0923	-0.0004	 0.0000	-0.0112	 0.0468	 0.3163	 0.0483	 0.1263	 0.1318	-0.0004	 0.0000	-0.0754	 0.0204	 0.1836	-0.0739	
   686	 0.3438	 0.1592	-0.0004	 0.0000	-0.0601	 0.0432	 0.1792	 0.0840	 0.1391	 0.1129	-0.0004	 0.0000	-0.0962	 0.0208	 0.1691	-0.0829	
   687	 0.2258	 0.1666	-0.0004	 0.0000	-0.0810	 0.0437	 0.1310	 0.0945	 0.1174	 0.0994	-0.0004	 0.0000	-0.1171	 0.0213	 0.1418	-0.0730	
   688	 0.2258	 0.1666	-0.0004	 0.0000	-0.1091	 0.0397	 0.0765	 0.1143	 0.1583	 0.0846	-0.0004	 0.0000	-0.1179	 0.0074	 0.1482	-0.0824	
   689	 0.3438	 0.1592	-0.0004	 0.0000	-0.1436	 0.0452	 0.0476	 0.0964	 0.1174	 0.0994	-0.0004	 0.0000	-0.1524	 0.0129	 0.1346	-0.0774	
   690	 0.4617	 0.1518	-0.0004	 0.0000	-0.1027	 0.0303	 0.0067	 0.1113	 0.0965	 0.0999	-0.0004	 0.0000	-0.1669	 0.0039	 0.1202	-0.0864	
   691	 0.4233	 0.2085	-0.0004	 0.0000	-0.1091	 0.0397	 0.0604	 0.0775	 0.0821	 0.0910	-0.0004	 0.0000	-0.2086	 0.0049	 0.1129	-0.0909	
   692	 0.3118	 0.2064	-0.0004	 0.0000	-0.1436	 0.0452	 0.0195	 0.0924	 0.0548	 0.1009	-0.0004	 0.0000	-0.2295	 0.0054	 0.0921	-0.0904	
   693	 0.2734	 0.2631	-0.0004	 0.0000	-0.1436	 0.0452	 0.0604	 0.0775	 0.0203	 0.1064	-0.0004	 0.0000	-0.2439	-0.0036	 0.0712	-0.0899	
   694	 0.1938	 0.2138	-0.0004	 0.0000	-0.1925	 0.0417	-0.0158	 0.0839	 0.0203	 0.1064	-0.0004	 0.0000	-0.2512	-0.0081	 0.0503	-0.0894	
   695	-0.0740	 0.2758	-0.0004	 0.0000	-0.2351	 0.0287	-0.0576	 0.0849	 0.0203	 0.1064	-0.0004	 0.0000	-0.2576	 0.0014	 0.0640	-0.0944	
   696	 0.0759	 0.2212	-0.0004	 0.0000	-0.2351	 0.0287	-0.0030	 0.0651	 0.0058	 0.0974	-0.0004	 0.0000	-0.2503	 0.0058	 0.0648	-0.0805	
   697	-0.0740	 0.2758	-0.0004	 0.0000	-0.2696	 0.0342	-0.0350	 0.1122	 0.0693	 0.1099	-0.0004	 0.0000	-0.2214	 0.0238	 0.1202	-0.0864	
   698	-0.0740	 0.2758	-0.0004	 0.0000	-0.2824	 0.0531	 0.0348	 0.1153	 0.0965	 0.0999	-0.0004	 0.0000	-0.1861	 0.0322	 0.1418	-0.0730	
   699	 0.0439	 0.2684	-0.0004	 0.0000	-0.2462	 0.0754	 0.0990	 0.1416	 0.1174	 0.0994	-0.0004	 0.0000	-0.1371	 0.0357	 0.1836	-0.0739	
   700	 0.3118	 0.2064	-0.0004	 0.0000	-0.1628	 0.0735	 0.2587	 0.1333	 0.1663	 0.1030	-0.0004	 0.0000	-0.1018	 0.0442	 0.2117	-0.0699	
   701	 0.4233	 0.2085	-0.0004	 0.0000	-0.0938	 0.0626	 0.2812	 0.1606	 0.2025	 0.1253	-0.0004	 0.0000	-0.0737	 0.0482	 0.2189	-0.0655	
   702	 0.5549	 0.1961	-0.0004	 0.0000	-0.0793	 0.0716	 0.3102	 0.1785	 0.2298	 0.1154	-0.0004	 0.0000	-0.0320	 0.0472	 0.2398	-0.0659	
   703	 0.4233	 0.2085	-0.0004	 0.0000	-0.0938	 0.0626	 0.3102	 0.1785	 0.2851	 0.1095	-0.0004	 0.0000	-0.0103	 0.0607	 0.2606	-0.0664	
   704	 0.4617	 0.1518	-0.0004	 0.0000	-0.1283	 0.0681	 0.2556	 0.1984	 0.3060	 0.1090	-0.0004	 0.0000	 0.0106	 0.0602	 0.2678	-0.0620	
   705	 0.4617	 0.1518	-0.0004	 0.0000	-0.0874	 0.0532	 0.2556	 0.1984	 0.2932	 0.1279	-0.0004	 0.0000	 0.0314	 0.0597	 0.2815	-0.0669	
   706	 0.4233	 0.2085	-0.0004	 0.0000	-0.0665	 0.0527	 0.3230	 0.1597	 0.2932	 0.1279	-0.0004	 0.0000	 0.0387	 0.0642	 0.2751	-0.0575	
   707	 0.4617	 0.1518	-0.0004	 0.0000	-0.0384	 0.0567	 0.3775	 0.1398	 0.3204	 0.1180	-0.0004	 0.0000	 0.0459	 0.0686	 0.2751	-0.0575	
   708	 0.5869	 0.1489	-0.0004	 0.0000	 0.0169	 0.0507	 0.4192	 0.1388	 0.3204	 0.1180	-0.0004	 0.0000	 0.0459	 0.0686	 0.2815	-0.0669	
   709	 0.5549	 0.1961	-0.0004	 0.0000	 0.0450	 0.0547	 0.4609	 0.1379	 0.3140	 0.1274	-0.0004	 0.0000	 0.0595	 0.0637	 0.2815	-0.0669	
   710	 0.4617	 0.1518	-0.0004	 0.0000	 0.0169	 0.0507	 0.3647	 0.1587	 0.3285	 0.1363	-0.0004	 0.0000	 0.0732	 0.0587	 0.2815	-0.0669	
   711	 0.3438	 0.1592	-0.0004	 0.0000	-0.0240	 0.0656	 0.3230	 0.1597	 0.3221	 0.1458	-0.0004	 0.0000	 0.0804	 0.0632	 0.2815	-0.0669	
   712	 0.4937	 0.1046	-0.0004	 0.0000	-0.0176	 0.0562	 0.3647	 0.1587	 0.3774	 0.1399	-0.0004	 0.0000	 0.1076	 0.0533	 0.3023	-0.0674	
   713	 0.3758	 0.1120	-0.0004	 0.0000	-0.0448	 0.0661	 0.3230	 0.1597	 0.3502	 0.1498	-0.0004	 0.0000	 0.1012	 0.0627	 0.3096	-0.0629	
   714	 0.4078	 0.0648	-0.0004	 0.0000	-0.0240	 0.0656	 0.3357	 0.1408	 0.3221	 0.1458	-0.0004	 0.0000	 0.1012	 0.0627	 0.3160	-0.0724	
   715	 0.3758	 0.1120	-0.0004	 0.0000	-0.0240	 0.0656	 0.3775	 0.1398	 0.3630	 0.1309	-0.0004	 0.0000	 0.1012	 0.0627	 0.3224	-0.0818	
   716	 0.5257	 0.0575	-0.0004	 0.0000	-0.0368	 0.0845	 0.3775	 0.1398	 0.3630	 0.1309	-0.0004	 0.0000	 0.1012	 0.0627	 0.3224	-0.0818	
   717	 0.4937	 0.1046	-0.0004	 0.0000	-0.0368	 0.0845	 0.3775	 0.1398	 0.3502	 0.1498	-0.0004	 0.0000	 0.0876	 0.0677	 0.3015	-0.0813	
   718	 0.4617	 0.1518	-0.0004	 0.0000	-0.0368	 0.0845	 0.3357	 0.1408	 0.3647	 0.1587	-0.0004	 0.0000	 0.0876	 0.0677	 0.3015	-0.0813	
   719	 0.3118	 0.2064	-0.0004	 0.0000	-0.0240	 0.0656	 0.3004	 0.1323	 0.3502	 0.1498	-0.0004	 0.0000	 0.0876	 0.0677	 0.2879	-0.0764	
   720	 0.3758	 0.1120	-0.0004	 0.0000	-0.0448	 0.0661	 0.2715	 0.1144	 0.3221	 0.1458	-0.0004	 0.0000	 0.0804	 0.0632	 0.2879	-0.0764	
   721	 0.3118	 0.2064	-0.0004	 0.0000	-0.0384	 0.0567	 0.2306	 0.1293	 0.3140	 0.1274	-0.0004	 0.0000	 0.0595	 0.0637	 0.2742	-0.0714	
   722	 0.3118	 0.2064	-0.0004	 0.0000	-0.0384	 0.0567	 0.1825	 0.1397	 0.2932	 0.1279	-0.0004	 0.0000	 0.0387	 0.0642	 0.2670	-0.0759	
   723	 0.4233	 0.2085	-0.0004	 0.0000	-0.0448	 0.0661	 0.2306	 0.1293	 0.2378	 0.1338	-0.0004	 0.0000	 0.0314	 0.0597	 0.2462	-0.0754	
   724	 0.4233	 0.2085	-0.0004	 0.0000	-0.0448	 0.0661	 0.1825	 0.1397	 0.2106	 0.1437	-0.0004	 0.0000	 0.0106	 0.0602	 0.2462	-0.0754	
   725	 0.4233	 0.2085	-0.0004	 0.0000	-0.0176	 0.0562	 0.2370	 0.1199	 0.1833	 0.1537	-0.0004	 0.0000	-0.0103	 0.0607	 0.2389	-0.0799	
   726	 0.3438	 0.1592	-0.0004	 0.0000	-0.0384	 0.0567	 0.1953	 0.1208	 0.1897	 0.1442	-0.0004	 0.0000	-0.0175	 0.0562	 0.2181	-0.0794	
   727	 0.2578	 0.1194	-0.0004	 0.0000	-0.0601	 0.0432	 0.1664	 0.1029	 0.1680	 0.1308	-0.0004	 0.0000	-0.0111	 0.0467	 0.2181	-0.0794	
   728	 0.2258	 0.1666	-0.0004	 0.0000	-0.0874	 0.0532	 0.1118	 0.1228	 0.2217	 0.0970	-0.0004	 0.0000	-0.0248	 0.0517	 0.2181	-0.0794	
   729	 0.1938	 0.2138	-0.0004	 0.0000	-0.1692	 0.0829	 0.0701	 0.1237	 0.2489	 0.0871	-0.0004	 0.0000	-0.0320	 0.0472	 0.2181	-0.0794	
   730	 0.3438	 0.1592	-0.0004	 0.0000	-0.1283	 0.0681	 0.1246	 0.1039	 0.1936	 0.0930	-0.0004	 0.0000	-0.0392	 0.0427	 0.2036	-0.0883	
   731	 0.3438	 0.1592	-0.0004	 0.0000	-0.0874	 0.0532	 0.0701	 0.1237	 0.1727	 0.0935	-0.0004	 0.0000	-0.0537	 0.0338	 0.1900	-0.0834	
   732	 0.4233	 0.2085	-0.0004	 0.0000	-0.0384	 0.0567	 0.1118	 0.1228	 0.1455	 0.1034	-0.0004	 0.0000	-0.0818	 0.0298	 0.1482	-0.0824	
   733	 0.5869	 0.1489	-0.0004	 0.0000	-0.0448	 0.0661	 0.1536	 0.1218	 0.1391	 0.1129	-0.0004	 0.0000	-0.1026	 0.0303	 0.1210	-0.0725	
   734	 0.4233	 0.2085	-0.0004	 0.0000	-0.0793	 0.0716	 0.1118	 0.1228	 0.1391	 0.1129	-0.0004	 0.0000	-0.1099	 0.0258	 0.1202	-0.0864	
   735	 0.1618	 0.2610	-0.0004	 0.0000	-0.1283	 0.0681	 0.0893	 0.0954	 0.0982	 0.1278	-0.0004	 0.0000	-0.1307	 0.0263	 0.1266	-0.0958	
   736	 0.2258	 0.1666	-0.0004	 0.0000	-0.1772	 0.0646	-0.0350	 0.1122	 0.0901	 0.1094	-0.0004	 0.0000	-0.1452	 0.0173	 0.1057	-0.0953	
   737	 0.3758	 0.1120	-0.0004	 0.0000	-0.2117	 0.0700	-0.0704	 0.1038	 0.0548	 0.1009	-0.0004	 0.0000	-0.1733	 0.0133	 0.0985	-0.0998	
   738	 0.3758	 0.1120	-0.0004	 0.0000	-0.2462	 0.0754	-0.1666	 0.1246	 0.0058	 0.0974	-0.0004	 0.0000	-0.2014	 0.0094	 0.0640	-0.0944	
   739	 0.3758	 0.1120	-0.0004	 0.0000	-0.2334	 0.0566	-0.1538	 0.1057	-0.0231	 0.0795	-0.0004	 0.0000	-0.2295	 0.0054	 0.0495	-0.1033	
   740	 0.4397	 0.0176	-0.0004	 0.0000	-0.2543	 0.0571	-0.1538	 0.1057	-0.0512	 0.0755	-0.0004	 0.0000	-0.2503	 0.0058	 0.0286	-0.1028	
   741	 0.4078	 0.0648	-0.0004	 0.0000	-0.2415	 0.0382	-0.1121	 0.1048	-0.0640	 0.0944	-0.0004	 0.0000	-0.2576	 0.0014	 0.0286	-0.1028	
   742	 0.2898	 0.0722	-0.0004	 0.0000	-0.2760	 0.0436	-0.1249	 0.1236	-0.0295	 0.0889	-0.0004	 0.0000	-0.2503	 0.0058	 0.0222	-0.0934	
   743	 0.0219	 0.1342	-0.0004	 0.0000	-0.3032	 0.0535	-0.0831	 0.1227	 0.0058	 0.0974	-0.0004	 0.0000	-0.2222	 0.0098	 0.0567	-0.0989	
   744	-0.0100	 0.1814	-0.0004	 0.0000	-0.2952	 0.0719	 0.0220	 0.1341	 0.0693	 0.1099	-0.0004	 0.0000	-0.1661	 0.0178	 0.0993	-0.0859	
   745	 0.1079	 0.1740	-0.0004	 0.0000	-0.2543	 0.0571	 0.1118	 0.1228	 0.1455	 0.1034	-0.0004	 0.0000	-0.1163	 0.0352	 0.1418	-0.0730	
   746	 0.1938	 0.2138	-0.0004	 0.0000	-0.2462	 0.0754	 0.2306	 0.1293	 0.2217	 0.0970	-0.0004	 0.0000	-0.0665	 0.0527	 0.1908	-0.0695	
   747	 0.1938	 0.2138	-0.0004	 0.0000	-0.1772	 0.0646	 0.2587	 0.1333	 0.2362	 0.1060	-0.0004	 0.0000	-0.0175	 0.0562	 0.2253	-0.0749	
   748	 0.1938	 0.2138	-0.0004	 0.0000	-0.1475	 0.0964	 0.3357	 0.1408	 0.2442	 0.1244	-0.0004	 0.0000	 0.0178	 0.0646	 0.2534	-0.0709	
   749	 0.3438	 0.1592	-0.0004	 0.0000	-0.1049	 0.1093	 0.4064	 0.1577	 0.2932	 0.1279	-0.0004	 0.0000	 0.0395	 0.0781	 0.2742	-0.0714	
   750	 0.3118	 0.2064	-0.0004	 0.0000	-0.0496	 0.1034	 0.4962	 0.1463	 0.3012	 0.1463	-0.0004	 0.0000	 0.0812	 0.0771	 0.2951	-0.0719	
   751	 0.1618	 0.2610	-0.0004	 0.0000	-0.0087	 0.0885	 0.5026	 0.1369	 0.3221	 0.1458	-0.0004	 0.0000	 0.1229	 0.0761	 0.3160	-0.0724	
   752	 0.0759	 0.2212	-0.0004	 0.0000	-0.0087	 0.0885	 0.4609	 0.1379	 0.3502	 0.1498	-0.0004	 0.0000	 0.1510	 0.0801	 0.3232	-0.0679	
   753	-0.0740	 0.2758	-0.0004	 0.0000	-0.0432	 0.0939	 0.4320	 0.1200	 0.3647	 0.1587	-0.0004	 0.0000	 0.1655	 0.0891	 0.3441	-0.0684	
   754	 0.1938	 0.2138	-0.0004	 0.0000	-0.0432	 0.0939	 0.3775	 0.1398	 0.3374	 0.1687	-0.0004	 0.0000	 0.1791	 0.0841	 0.3513	-0.0639	
   755	 0.3118	 0.2064	-0.0004	 0.0000	 0.0322	 0.0736	 0.4320	 0.1200	 0.3647	 0.1587	-0.0004	 0.0000	 0.1864	 0.0886	 0.3513	-0.0639	
   756	 0.2734	 0.2631	-0.0004	 0.0000	 0.0194	 0.0925	 0.4320	 0.1200	 0.3093	 0.1647	-0.0004	 0.0000	 0.1864	 0.0886	 0.3377	-0.0589	
   757	 0.5549	 0.1961	-0.0004	 0.0000	 0.0684	 0.0960	 0.5154	 0.1180	 0.3774	 0.1399	-0.0004	 0.0000	 0.1864	 0.0886	 0.3240	-0.0540	
   758	 0.5549	 0.1961	-0.0004	 0.0000	 0.0620	 0.1054	 0.5026	 0.1369	 0.3855	 0.1582	-0.0004	 0.0000	 0.1936	 0.0931	 0.3240	-0.0540	
   759	 0.4233	 0.2085	-0.0004	 0.0000	 0.1029	 0.0906	 0.5026	 0.1369	 0.4136	 0.1622	-0.0004	 0.0000	 0.2145	 0.0926	 0.3513	-0.0639	
   760	 0.3118	 0.2064	-0.0004	 0.0000	 0.1029	 0.0906	 0.4481	 0.1568	 0.4072	 0.1717	-0.0004	 0.0000	 0.2353	 0.0921	 0.3513	-0.0639	
   761	 0.3438	 0.1592	-0.0004	 0.0000	 0.1029	 0.0906	 0.4481	 0.1568	 0.4136	 0.1622	-0.0004	 0.0000	 0.2425	 0.0966	 0.3649	-0.0689	
   762	 0.4617	 0.1518	-0.0004	 0.0000	 0.0965	 0.1000	 0.4481	 0.1568	 0.4345	 0.1618	-0.0004	 0.0000	 0.2498	 0.1011	 0.3858	-0.0693	
   763	 0.5869	 0.1489	-0.0004	 0.0000	 0.1109	 0.1089	 0.4064	 0.1577	 0.4409	 0.1523	-0.0004	 0.0000	 0.2562	 0.0916	 0.3794	-0.0599	
   764	 0.4233	 0.2085	-0.0004	 0.0000	 0.1454	 0.1035	 0.4737	 0.1190	 0.4409	 0.1523	-0.0004	 0.0000	 0.2562	 0.0916	 0.3858	-0.0693	
   765	 0.4617	 0.1518	-0.0004	 0.0000	 0.1863	 0.0886	 0.4737	 0.1190	 0.3919	 0.1488	-0.0004	 0.0000	 0.2489	 0.0871	 0.3649	-0.0689	
   766	 0.4233	 0.2085	-0.0004	 0.0000	 0.1944	 0.1070	 0.5154	 0.1180	 0.4537	 0.1334	-0.0004	 0.0000	 0.2489	 0.0871	 0.3649	-0.0689	
   767	 0.4233	 0.2085	-0.0004	 0.0000	 0.2072	 0.0881	 0.4609	 0.1379	 0.4136	 0.1622	-0.0004	 0.0000	 0.2353	 0.0921	 0.3577	-0.0733	
   768	 0.1938	 0.2138	-0.0004	 0.0000	 0.1518	 0.0941	 0.3647	 0.1587	 0.4072	 0.1717	-0.0004	 0.0000	 0.2417	 0.0827	 0.3641	-0.0828	
   769	 0.1938	 0.2138	-0.0004	 0.0000	 0.1646	 0.0752	 0.3775	 0.1398	 0.3455	 0.1870	-0.0004	 0.0000	 0.2281	 0.0876	 0.3505	-0.0778	
   770	 0.2258	 0.1666	-0.0004	 0.0000	 0.1029	 0.0906	 0.2876	 0.1512	 0.3583	 0.1682	-0.0004	 0.0000	 0.2345	 0.0782	 0.3432	-0.0823	
   771	 0.3438	 0.1592	-0.0004	 0.0000	 0.1029	 0.0906	 0.2876	 0.1512	 0.3310	 0.1781	-0.0004	 0.0000	 0.2273	 0.0737	 0.3296	-0.0773	
   772	 0.3438	 0.1592	-0.0004	 0.0000	 0.1093	 0.0811	 0.3004	 0.1323	 0.2965	 0.1835	-0.0004	 0.0000	 0.2000	 0.0836	 0.3160	-0.0724	
   773	 0.4617	 0.1518	-0.0004	 0.0000	 0.1029	 0.0906	 0.3004	 0.1323	 0.2948	 0.1557	-0.0004	 0.0000	 0.1928	 0.0792	 0.3160	-0.0724	
   774	 0.4937	 0.1046	-0.0004	 0.0000	 0.0965	 0.1000	 0.3004	 0.1323	 0.2948	 0.1557	-0.0004	 0.0000	 0.1791	 0.0841	 0.3087	-0.0768	
   775	 0.4233	 0.2085	-0.0004	 0.0000	 0.1237	 0.0901	 0.3549	 0.1125	 0.2740	 0.1562	-0.0004	 0.0000	 0.1719	 0.0796	 0.3015	-0.0813	
   776	 0.1618	 0.2610	-0.0004	 0.0000	 0.0684	 0.0960	 0.2715	 0.1144	 0.2740	 0.1562	-0.0004	 0.0000	 0.1510	 0.0801	 0.2879	-0.0764	
   777	 0.0759	 0.2212	-0.0004	 0.0000	 0.0403	 0.0920	 0.2370	 0.1199	 0.2740	 0.1562	-0.0004	 0.0000	 0.1438	 0.0757	 0.2806	-0.0808	
   778	 0.2258	 0.1666	-0.0004	 0.0000	 0.0322	 0.0736	 0.1953	 0.1208	 0.2932	 0.1279	-0.0004	 0.0000	 0.1293	 0.0667	 0.2734	-0.0853	
   779	 0.1938	 0.2138	-0.0004	 0.0000	-0.0432	 0.0939	 0.1536	 0.1218	 0.2932	 0.1279	-0.0004	 0.0000	 0.1149	 0.0577	 0.2598	-0.0803	
   780	 0.1938	 0.2138	-0.0004	 0.0000	-0.0512	 0.0756	 0.1118	 0.1228	 0.2787	 0.1189	-0.0004	 0.0000	 0.0804	 0.0632	 0.2462	-0.0754	
   781	 0.1938	 0.2138	-0.0004	 0.0000	-0.0857	 0.0810	 0.0573	 0.1426	 0.2089	 0.1159	-0.0004	 0.0000	 0.0523	 0.0592	 0.2317	-0.0843	
   782	 0.3118	 0.2064	-0.0004	 0.0000	-0.0448	 0.0661	 0.0990	 0.1416	 0.2089	 0.1159	-0.0004	 0.0000	 0.0378	 0.0502	 0.2108	-0.0839	
   783	 0.1618	 0.2610	-0.0004	 0.0000	-0.0793	 0.0716	 0.1118	 0.1228	 0.1680	 0.1308	-0.0004	 0.0000	 0.0170	 0.0507	 0.1900	-0.0834	
   784	 0.3118	 0.2064	-0.0004	 0.0000	-0.0793	 0.0716	 0.1664	 0.1029	 0.1535	 0.1218	-0.0004	 0.0000	 0.0025	 0.0418	 0.1827	-0.0878	
   785	 0.2258	 0.1666	-0.0004	 0.0000	-0.0938	 0.0626	 0.0765	 0.1143	 0.1663	 0.1030	-0.0004	 0.0000	-0.0047	 0.0373	 0.1891	-0.0973	
   786	 0.2258	 0.1666	-0.0004	 0.0000	-0.1692	 0.0829	 0.0348	 0.1153	 0.1663	 0.1030	-0.0004	 0.0000	-0.0256	 0.0378	 0.1755	-0.0923	
   787	 0.3758	 0.1120	-0.0004	 0.0000	-0.1628	 0.0735	 0.1021	 0.0765	 0.1391	 0.1129	-0.0004	 0.0000	-0.0464	 0.0383	 0.1619	-0.0874	
   788	 0.3758	 0.1120	-0.0004	 0.0000	-0.1772	 0.0646	 0.0259	 0.0830	 0.1391	 0.1129	-0.0004	 0.0000	-0.0673	 0.0388	 0.1546	-0.0918	
   789	 0.5257	 0.0575	-0.0004	 0.0000	-0.1708	 0.0551	 0.0387	 0.0641	 0.0901	 0.1094	-0.0004	 0.0000	-0.0818	 0.0298	 0.1402	-0.1008	
   790	 0.3758	 0.1120	-0.0004	 0.0000	-0.1708	 0.0551	 0.0387	 0.0641	 0.0901	 0.1094	-0.0004	 0.0000	-0.0890	 0.0253	 0.1266	-0.0958	
   791	 0.3758	 0.1120	-0.0004	 0.0000	-0.1772	 0.0646	 0.0259	 0.0830	 0.0965	 0.0999	-0.0004	 0.0000	-0.0954	 0.0348	 0.1402	-0.1008	
   792	 0.3438	 0.1592	-0.0004	 0.0000	-0.1500	 0.0546	 0.0348	 0.1153	 0.0982	 0.1278	-0.0004	 0.0000	-0.0673	 0.0388	 0.1546	-0.0918	
   793	 0.1938	 0.2138	-0.0004	 0.0000	-0.1219	 0.0586	 0.1246	 0.1039	 0.1535	 0.1218	-0.0004	 0.0000	-0.0320	 0.0472	 0.1964	-0.0928	
   794	 0.3438	 0.1592	-0.0004	 0.0000	-0.0874	 0.0532	 0.1953	 0.1208	 0.2298	 0.1154	-0.0004	 0.0000	 0.0242	 0.0552	 0.2590	-0.0943	
   795	 0.3438	 0.1592	-0.0004	 0.0000	-0.0665	 0.0527	 0.2587	 0.1333	 0.2378	 0.1338	-0.0004	 0.0000	 0.0668	 0.0682	 0.2870	-0.0903	
   796	 0.3118	 0.2064	-0.0004	 0.0000	-0.0448	 0.0661	 0.2876	 0.1512	 0.2868	 0.1373	-0.0004	 0.0000	 0.1093	 0.0811	 0.3224	-0.0818	
   797	 0.4233	 0.2085	-0.0004	 0.0000	 0.0322	 0.0736	 0.4192	 0.1388	 0.3140	 0.1274	-0.0004	 0.0000	 0.1446	 0.0896	 0.3360	-0.0868	
   798	 0.4233	 0.2085	-0.0004	 0.0000	 0.0684	 0.0960	 0.4962	 0.1463	 0.3012	 0.1463	-0.0004	 0.0000	 0.1864	 0.0886	 0.3569	-0.0873	
   799	 0.5549	 0.1961	-0.0004	 0.0000	 0.1029	 0.0906	 0.5925	 0.1255	 0.3902	 0.1210	-0.0004	 0.0000	 0.2281	 0.0876	 0.3713	-0.0783	
   800	 0.4233	 0.2085	-0.0004	 0.0000	 0.0965	 0.1000	 0.5380	 0.1454	 0.4537	 0.1334	-0.0004	 0.0000	 0.2634	 0.0961	 0.3858	-0.0693	
   801	 0.3118	 0.2064	-0.0004	 0.0000	 0.0965	 0.1000	 0.5508	 0.1265	 0.4681	 0.1424	-0.0004	 0.0000	 0.2915	 0.1001	 0.4130	-0.0793	
   802	 0.2258	 0.1666	-0.0004	 0.0000	 0.0556	 0.1149	 0.4962	 0.1463	 0.4681	 0.1424	-0.0004	 0.0000	 0.3060	 0.1090	 0.4066	-0.0698	
   803	 0.1938	 0.2138	-0.0004	 0.0000	 0.0837	 0.1189	 0.4962	 0.1463	 0.5026	 0.1369	-0.0004	 0.0000	 0.3268	 0.1086	 0.4139	-0.0654	
   804	 0.3438	 0.1592	-0.0004	 0.0000	 0.0837	 0.1189	 0.4417	 0.1662	 0.4898	 0.1558	-0.0004	 0.0000	 0.3341	 0.1130	 0.4275	-0.0703	
   805	 0.3118	 0.2064	-0.0004	 0.0000	 0.0837	 0.1189	 0.4417	 0.1662	 0.5107	 0.1553	-0.0004	 0.0000	 0.3477	 0.1081	 0.4275	-0.0703	
   806	 0.3118	 0.2064	-0.0004	 0.0000	 0.1109	 0.1089	 0.4417	 0.1662	 0.4979	 0.1742	-0.0004	 0.0000	 0.3549	 0.1125	 0.4211	-0.0609	
   807	 0.4233	 0.2085	-0.0004	 0.0000	 0.1863	 0.0886	 0.4834	 0.1652	 0.5123	 0.1832	-0.0004	 0.0000	 0.3549	 0.1125	 0.4211	-0.0609	
   808	 0.4233	 0.2085	-0.0004	 0.0000	 0.1863	 0.0886	 0.4834	 0.1652	 0.5340	 0.1966	-0.0004	 0.0000	 0.3758	 0.1121	 0.4484	-0.0708	
   809	 0.3118	 0.2064	-0.0004	 0.0000	 0.1927	 0.0792	 0.4834	 0.1652	 0.5276	 0.2060	-0.0004	 0.0000	 0.3758	 0.1121	 0.4347	-0.0658	
   810	 0.2734	 0.2631	-0.0004	 0.0000	 0.1927	 0.0792	 0.4834	 0.1652	 0.5340	 0.1966	-0.0004	 0.0000	 0.3830	 0.1165	 0.4211	-0.0609	
   811	 0.2734	 0.2631	-0.0004	 0.0000	 0.1863	 0.0886	 0.4417	 0.1662	 0.5340	 0.1966	-0.0004	 0.0000	 0.3966	 0.1116	 0.4211	-0.0609	
   812	 0.2734	 0.2631	-0.0004	 0.0000	 0.1454	 0.1035	 0.4481	 0.1568	 0.5340	 0.1966	-0.0004	 0.0000	 0.3966	 0.1116	 0.4211	-0.0609	
   813	 0.4233	 0.2085	-0.0004	 0.0000	 0.1863	 0.0886	 0.3936	 0.1766	 0.4787	 0.2025	-0.0004	 0.0000	 0.3894	 0.1071	 0.4139	-0.0654	
   814	 0.4617	 0.1518	-0.0004	 0.0000	 0.1799	 0.0981	 0.4064	 0.1577	 0.4851	 0.1931	-0.0004	 0.0000	 0.3894	 0.1071	 0.4003	-0.0604	
   815	 0.4617	 0.1518	-0.0004	 0.0000	 0.1390	 0.1129	 0.3519	 0.1776	 0.4706	 0.1841	-0.0004	 0.0000	 0.3758	 0.1121	 0.3930	-0.0649	
   816	 0.4617	 0.1518	-0.0004	 0.0000	 0.1390	 0.1129	 0.3647	 0.1587	 0.4834	 0.1653	-0.0004	 0.0000	 0.3685	 0.1076	 0.3858	-0.0693	
   817	 0.3438	 0.1592	-0.0004	 0.0000	 0.1454	 0.1035	 0.3775	 0.1398	 0.4834	 0.1653	-0.0004	 0.0000	 0.3749	 0.0981	 0.3858	-0.0693	
   818	 0.3758	 0.1120	-0.0004	 0.0000	 0.1454	 0.1035	 0.3903	 0.1209	 0.4834	 0.1653	-0.0004	 0.0000	 0.3677	 0.0937	 0.3786	-0.0738	
   819	 0.3758	 0.1120	-0.0004	 0.0000	 0.1518	 0.0941	 0.3421	 0.1313	 0.4898	 0.1558	-0.0004	 0.0000	 0.3605	 0.0892	 0.3649	-0.0689	
   820	 0.3438	 0.1592	-0.0004	 0.0000	 0.1646	 0.0752	 0.3421	 0.1313	 0.4898	 0.1558	-0.0004	 0.0000	 0.3396	 0.0897	 0.3577	-0.0733	
   821	 0.4617	 0.1518	-0.0004	 0.0000	 0.1927	 0.0792	 0.3967	 0.1115	 0.5026	 0.1369	-0.0004	 0.0000	 0.3260	 0.0946	 0.3641	-0.0828	
   822	 0.3118	 0.2064	-0.0004	 0.0000	 0.1646	 0.0752	 0.3549	 0.1125	 0.4681	 0.1424	-0.0004	 0.0000	 0.3188	 0.0902	 0.3368	-0.0729	
   823	 0.3438	 0.1592	-0.0004	 0.0000	 0.1237	 0.0901	 0.2587	 0.1333	 0.4264	 0.1434	-0.0004	 0.0000	 0.2907	 0.0862	 0.3087	-0.0768	
   824	 0.0759	 0.2212	-0.0004	 0.0000	 0.1029	 0.0906	 0.1761	 0.1491	 0.3855	 0.1582	-0.0004	 0.0000	 0.2834	 0.0817	 0.2951	-0.0719	
   825	 0.2258	 0.1666	-0.0004	 0.0000	 0.0965	 0.1000	 0.1761	 0.1491	 0.3647	 0.1587	-0.0004	 0.0000	 0.2762	 0.0772	 0.2879	-0.0764	
   826	 0.1399	 0.1268	-0.0004	 0.0000	 0.0812	 0.0771	 0.1280	 0.1596	 0.3647	 0.1587	-0.0004	 0.0000	 0.2762	 0.0772	 0.2879	-0.0764	
   827	 0.1079	 0.1740	-0.0004	 0.0000	 0.0467	 0.0826	 0.0734	 0.1794	 0.3647	 0.1587	-0.0004	 0.0000	 0.2553	 0.0777	 0.2943	-0.0858	
   828	 0.1079	 0.1740	-0.0004	 0.0000	 0.0386	 0.0642	 0.0317	 0.1804	 0.3502	 0.1498	-0.0004	 0.0000	 0.2409	 0.0687	 0.2870	-0.0903	
   829	 0.1079	 0.1740	-0.0004	 0.0000	 0.0041	 0.0696	 0.0445	 0.1615	 0.3221	 0.1458	-0.0004	 0.0000	 0.2064	 0.0742	 0.2662	-0.0898	
   830	-0.0420	 0.2286	-0.0004	 0.0000	-0.0240	 0.0656	 0.0028	 0.1625	 0.3012	 0.1463	-0.0004	 0.0000	 0.1919	 0.0652	 0.2453	-0.0893	
   831	 0.0759	 0.2212	-0.0004	 0.0000	-0.0240	 0.0656	 0.0028	 0.1625	 0.2868	 0.1373	-0.0004	 0.0000	 0.1638	 0.0612	 0.2245	-0.0888	
   832	-0.0740	 0.2758	-0.0004	 0.0000	-0.0448	 0.0661	-0.0253	 0.1585	 0.2932	 0.1279	-0.0004	 0.0000	 0.1357	 0.0573	 0.2036	-0.0883	
   833	-0.0420	 0.2286	-0.0004	 0.0000	-0.1066	 0.0815	-0.0606	 0.1500	 0.2787	 0.1189	-0.0004	 0.0000	 0.1213	 0.0483	 0.2028	-0.1022	
   834	-0.0420	 0.2286	-0.0004	 0.0000	-0.1347	 0.0775	-0.0478	 0.1311	 0.2298	 0.1154	-0.0004	 0.0000	 0.0932	 0.0443	 0.1610	-0.1013	
   835	-0.0100	 0.1814	-0.0004	 0.0000	-0.1692	 0.0829	-0.0831	 0.1227	 0.2298	 0.1154	-0.0004	 0.0000	 0.0860	 0.0398	 0.1674	-0.1107	
   836	-0.1280	 0.1888	-0.0004	 0.0000	-0.1628	 0.0735	-0.1249	 0.1236	 0.1680	 0.1308	-0.0004	 0.0000	 0.0579	 0.0358	 0.1330	-0.1053	
   837	-0.0100	 0.1814	-0.0004	 0.0000	-0.1692	 0.0829	-0.1121	 0.1048	 0.1808	 0.1119	-0.0004	 0.0000	 0.0370	 0.0363	 0.1393	-0.1147	
   838	 0.1079	 0.1740	-0.0004	 0.0000	-0.1692	 0.0829	-0.0704	 0.1038	 0.1455	 0.1034	-0.0004	 0.0000	 0.0089	 0.0323	 0.1185	-0.1142	
   839	-0.0420	 0.2286	-0.0004	 0.0000	-0.1692	 0.0829	-0.0831	 0.1227	 0.1583	 0.0846	-0.0004	 0.0000	 0.0017	 0.0279	 0.1113	-0.1187	
   840	-0.0420	 0.2286	-0.0004	 0.0000	-0.1283	 0.0681	-0.0478	 0.1311	 0.1174	 0.0994	-0.0004	 0.0000	-0.0120	 0.0328	 0.1113	-0.1187	
   841	 0.1079	 0.1740	-0.0004	 0.0000	-0.0874	 0.0532	 0.0765	 0.1143	 0.1663	 0.1030	-0.0004	 0.0000	 0.0025	 0.0418	 0.1393	-0.1147	
   842	 0.1079	 0.1740	-0.0004	 0.0000	-0.0938	 0.0626	 0.1118	 0.1228	 0.2089	 0.1159	-0.0004	 0.0000	 0.0378	 0.0502	 0.1674	-0.1107	
   843	 0.2258	 0.1666	-0.0004	 0.0000	-0.0793	 0.0716	 0.2370	 0.1199	 0.2378	 0.1338	-0.0004	 0.0000	 0.0804	 0.0632	 0.2028	-0.1022	
   844	 0.0439	 0.2684	-0.0004	 0.0000	-0.0448	 0.0661	 0.2587	 0.1333	 0.3140	 0.1274	-0.0004	 0.0000	 0.1430	 0.0617	 0.2381	-0.0938	
   845	 0.0759	 0.2212	-0.0004	 0.0000	-0.0368	 0.0845	 0.2331	 0.1710	 0.3285	 0.1363	-0.0004	 0.0000	 0.1719	 0.0796	 0.2526	-0.0848	
   846	 0.0759	 0.2212	-0.0004	 0.0000	 0.0322	 0.0736	 0.3230	 0.1597	 0.3774	 0.1399	-0.0004	 0.0000	 0.2209	 0.0831	 0.3007	-0.0952	
   847	 0.2258	 0.1666	-0.0004	 0.0000	 0.0403	 0.0920	 0.3519	 0.1776	 0.3774	 0.1399	-0.0004	 0.0000	 0.2489	 0.0871	 0.3015	-0.0813	
   848	 0.1079	 0.1740	-0.0004	 0.0000	 0.0403	 0.0920	 0.3519	 0.1776	 0.3919	 0.1488	-0.0004	 0.0000	 0.2770	 0.0911	 0.3151	-0.0863	
   849	 0.1079	 0.1740	-0.0004	 0.0000	 0.0275	 0.1109	 0.3519	 0.1776	 0.3919	 0.1488	-0.0004	 0.0000	 0.2915	 0.1001	 0.3151	-0.0863	
   850	 0.1079	 0.1740	-0.0004	 0.0000	 0.0620	 0.1054	 0.3519	 0.1776	 0.4264	 0.1434	-0.0004	 0.0000	 0.3260	 0.0946	 0.3224	-0.0818	
   851	 0.3758	 0.1120	-0.0004	 0.0000	 0.0837	 0.1189	 0.3936	 0.1766	 0.4409	 0.1523	-0.0004	 0.0000	 0.3405	 0.1036	 0.3296	-0.0773	
   852	 0.2258	 0.1666	-0.0004	 0.0000	 0.0965	 0.1000	 0.3519	 0.1776	 0.4898	 0.1558	-0.0004	 0.0000	 0.3613	 0.1031	 0.3505	-0.0778	
   853	 0.2258	 0.1666	-0.0004	 0.0000	 0.1109	 0.1089	 0.4064	 0.1577	 0.5026	 0.1369	-0.0004	 0.0000	 0.3613	 0.1031	 0.3368	-0.0729	
   854	 0.1938	 0.2138	-0.0004	 0.0000	 0.1518	 0.0941	 0.4064	 0.1577	 0.4617	 0.1518	-0.0004	 0.0000	 0.3613	 0.1031	 0.3432	-0.0823	
   855	 0.0439	 0.2684	-0.0004	 0.0000	 0.1518	 0.0941	 0.4064	 0.1577	 0.5171	 0.1459	-0.0004	 0.0000	 0.3749	 0.0981	 0.3432	-0.0823	
   856	 0.0119	 0.3156	-0.0004	 0.0000	 0.1518	 0.0941	 0.3519	 0.1776	 0.5251	 0.1643	-0.0004	 0.0000	 0.3822	 0.1026	 0.3569	-0.0873	
   857	 0.0439	 0.2684	-0.0004	 0.0000	 0.1454	 0.1035	 0.3647	 0.1587	 0.5532	 0.1683	-0.0004	 0.0000	 0.3822	 0.1026	 0.3705	-0.0922	
   858	 0.1938	 0.2138	-0.0004	 0.0000	 0.1454	 0.1035	 0.3647	 0.1587	 0.5532	 0.1683	-0.0004	 0.0000	 0.4030	 0.1021	 0.3705	-0.0922	
   859	 0.1938	 0.2138	-0.0004	 0.0000	 0.1045	 0.1184	 0.3647	 0.1587	 0.5379	 0.1454	-0.0004	 0.0000	 0.4030	 0.1021	 0.3705	-0.0922	
   860	 0.1938	 0.2138	-0.0004	 0.0000	 0.1390	 0.1129	 0.3647	 0.1587	 0.5379	 0.1454	-0.0004	 0.0000	 0.4167	 0.0972	 0.3705	-0.0922	
   861	 0.0439	 0.2684	-0.0004	 0.0000	 0.1799	 0.0981	 0.3647	 0.1587	 0.5379	 0.1454	-0.0004	 0.0000	 0.4167	 0.0972	 0.3569	-0.0873	
   862	 0.0439	 0.2684	-0.0004	 0.0000	 0.1799	 0.0981	 0.3647	 0.1587	 0.5171	 0.1459	-0.0004	 0.0000	 0.4030	 0.1021	 0.3424	-0.0962	
   863	 0.0439	 0.2684	-0.0004	 0.0000	 0.1799	 0.0981	 0.3647	 0.1587	 0.5171	 0.1459	-0.0004	 0.0000	 0.4030	 0.1021	 0.3424	-0.0962	
   864	 0.0439	 0.2684	-0.0004	 0.0000	 0.1799	 0.0981	 0.3647	 0.1587	 0.5171	 0.1459	-0.0004	 0.0000	 0.4030	 0.1021	 0.3424	-0.0962	
   865	 0.0439	 0.2684	-0.0004	 0.0000	 0.1799	 0.0981	 0.3647	 0.1587	 0.5171	 0.1459	-0.0004	 0.0000	 0.4030	 0.1021	 0.3424	-0.0962	
   866	 0.0439	 0.2684	-0.0004	 0.0000	 0.1799	 0.0981	 0.3647	 0.1587	 0.5171	 0.1459	-0.0004	 0.0000	 0.4030	 0.1021	 0.3424	-0.0962	
   867	 0.0439	 0.2684	-0.0004	 0.0000	 0.1799	 0.0981	 0.3647	 0.1587	 0.5171	 0.1459	-0.0004	 0.0000	 0.4030	 0.1021	 0.3424	-0.0962	
   868	 0.0439	 0.2684	-0.0004	 0.0000	 0.1799	 0.0981	 0.3647	 0.1587	 0.5171	 0.1459	-0.0004	 0.0000	 0.4030	 0.1021	 0.3424	-0.0962	
   869	 0.0439	 0.2684	-0.0004	 0.0000	 0.1799	 0.0981	 0.3647	 0.1587	 0.5171	 0.1459	-0.0004	 0.0000	 0.4030	 0.1021	 0.3424	-0.0962	
   870	 0.0439	 0.2684	-0.0004	 0.0000	 0.1799	 0.0981	 0.3647	 0.1587	 0.5171	 0.1459	-0.0004	 0.0000	 0.4030	 0.1021	 0.3424	-0.0962	
   871	 0.0439	 0.2684	-0.0004	 0.0000	 0.1799	 0.0981	 0.3647	 0.1587	 0.5171	 0.1459	-0.0004	 0.0000	 0.4030	 0.1021	 0.3424	-0.0962	
