OxySoft export of:	C:\Users\User\Desktop\Thesis\oxysoft_data\trial6
Export date:	2024/08/23 11:45:09
Start of measurement:	2024-08-23 11:34:01.518

Datafile sample rate:	50.00	Hz
Datafile duration:	640.940	s
Datafile total number of samples:	32047

Description:	

Optode-template:	OctaMon 2x4 channel
Optode distance (mm):	 35.00	35.00
Optode gradients (mm):	 -	-
DPF:	6.00	6.00

Device id:	16165
# Receivers:	2
# Light sources:	16
# ADC:	1

Light source wavelengths:
device	index	wavelength
1	1	850	nm
1	2	760	nm
1	3	850	nm
1	4	760	nm
1	5	850	nm
1	6	760	nm
1	7	850	nm
1	8	760	nm
1	9	850	nm
1	10	760	nm
1	11	850	nm
1	12	760	nm
1	13	850	nm
1	14	760	nm
1	15	850	nm
1	16	760	nm

Export sample rate:	50.00	Hz
Selected time span:	0	640.940
Selected time span (sample numbers):	0	32047


Legend:
Column	Trace (Measurement)
1	(Sample number)
2	Rx1-Tx1 O2Hb (trial6)
3	Rx1-Tx1 HHb (trial6)
4	Rx1-Tx2 O2Hb (trial6)
5	Rx1-Tx2 HHb (trial6)
6	Rx1-Tx3 O2Hb (trial6)
7	Rx1-Tx3 HHb (trial6)
8	Rx1-Tx4 O2Hb (trial6)
9	Rx1-Tx4 HHb (trial6)
10	Rx2-Tx5 O2Hb (trial6)
11	Rx2-Tx5 HHb (trial6)
12	Rx2-Tx6 O2Hb (trial6)
13	Rx2-Tx6 HHb (trial6)
14	Rx2-Tx7 O2Hb (trial6)
15	Rx2-Tx7 HHb (trial6)
16	Rx2-Tx8 O2Hb (trial6)
17	Rx2-Tx8 HHb (trial6)
18	(Event)


1	2	3	4	5	6	7	8	9	10	11	12	13	14	15	16	17	18
     0	53.4879	52.7319	-0.0004	 0.0000	73.0510	61.3860	67.7050	60.4884	78.4573	58.2874	-0.0004	 0.0000	94.8812	71.9661	92.1236	65.0998	
     1	-0.1635	 0.0595	-0.0004	 0.0000	 0.0731	 0.0587	 0.0292	 0.1387	 0.0320	-0.0472	-0.0004	 0.0000	-0.1051	-0.0115	-0.0409	 0.0149	
     2	-0.0320	 0.0472	-0.0004	 0.0000	 0.0667	 0.0681	 0.0292	 0.1387	 0.0320	-0.0472	-0.0004	 0.0000	-0.0979	-0.0071	-0.0336	 0.0194	
     3	-0.0640	 0.0944	-0.0004	 0.0000	 0.1140	 0.0438	 0.0837	 0.1188	 0.0320	-0.0472	-0.0004	 0.0000	-0.0842	-0.0120	-0.0400	 0.0288	
     4	 0.0540	 0.0870	-0.0004	 0.0000	 0.1894	 0.0235	 0.1382	 0.0990	 0.0729	-0.0621	-0.0004	 0.0000	-0.0842	-0.0120	-0.0400	 0.0288	
     5	-0.0960	 0.1416	-0.0004	 0.0000	 0.1830	 0.0329	 0.1382	 0.0990	 0.0937	-0.0626	-0.0004	 0.0000	-0.0706	-0.0170	-0.0264	 0.0238	
     6	-0.0640	 0.0944	-0.0004	 0.0000	 0.1549	 0.0289	 0.0965	 0.1000	 0.0937	-0.0626	-0.0004	 0.0000	-0.0706	-0.0170	-0.0200	 0.0144	
     7	-0.0320	 0.0472	-0.0004	 0.0000	 0.1549	 0.0289	 0.0965	 0.1000	 0.0537	-0.0338	-0.0004	 0.0000	-0.0706	-0.0170	-0.0200	 0.0144	
     8	-0.0320	 0.0472	-0.0004	 0.0000	 0.0859	 0.0398	 0.0484	 0.1104	 0.0409	-0.0149	-0.0004	 0.0000	-0.0706	-0.0170	-0.0200	 0.0144	
     9	 0.0860	 0.0398	-0.0004	 0.0000	 0.1268	 0.0249	 0.0484	 0.1104	 0.0128	-0.0189	-0.0004	 0.0000	-0.0778	-0.0215	-0.0208	 0.0005	
    10	-0.0320	 0.0472	-0.0004	 0.0000	 0.1268	 0.0249	 0.0612	 0.0915	-0.0017	-0.0279	-0.0004	 0.0000	-0.0915	-0.0165	-0.0345	 0.0054	
    11	 0.1180	-0.0074	-0.0004	 0.0000	 0.1549	 0.0289	 0.1029	 0.0905	-0.0507	-0.0314	 7.7037	-11.3645	-0.0987	-0.0210	-0.0625	 0.0014	
    12	 0.1180	-0.0074	-0.0004	 0.0000	 0.1549	 0.0289	 0.1157	 0.0716	-0.0779	-0.0214	 7.7037	-11.3645	-0.1196	-0.0205	-0.0762	 0.0064	
    13	 0.0000	-0.0000	-0.0004	 0.0000	 0.1268	 0.0249	 0.0740	 0.0726	-0.0988	-0.0209	 7.7037	-11.3645	-0.1332	-0.0155	-0.0834	 0.0019	
    14	 0.0320	-0.0472	-0.0004	 0.0000	 0.0923	 0.0304	 0.0322	 0.0736	-0.0779	-0.0214	-0.0004	 0.0000	-0.1268	-0.0250	-0.0834	 0.0019	
    15	-0.1315	 0.0123	-0.0004	 0.0000	 0.0514	 0.0453	-0.0159	 0.0840	-0.1132	-0.0299	-0.0004	 0.0000	-0.1404	-0.0200	-0.0906	-0.0025	
    16	-0.0996	-0.0349	-0.0004	 0.0000	 0.0233	 0.0413	-0.0993	 0.0859	-0.1068	-0.0393	-0.0004	 0.0000	-0.1476	-0.0245	-0.1179	 0.0074	
    17	-0.2175	-0.0275	-0.0004	 0.0000	 0.0233	 0.0413	-0.1410	 0.0869	-0.1349	-0.0433	-0.0004	 0.0000	-0.1549	-0.0290	-0.1115	-0.0021	
    18	-0.0676	-0.0821	-0.0004	 0.0000	 0.0105	 0.0601	-0.0993	 0.0859	-0.1349	-0.0433	-0.0004	 0.0000	-0.1757	-0.0285	-0.1324	-0.0016	
    19	-0.0676	-0.0821	-0.0004	 0.0000	 0.0105	 0.0601	-0.0448	 0.0661	-0.1285	-0.0528	-0.0004	 0.0000	-0.1830	-0.0329	-0.1396	-0.0061	
    20	-0.2175	-0.0275	-0.0004	 0.0000	-0.0039	 0.0512	-0.0993	 0.0859	-0.1430	-0.0617	-0.0004	 0.0000	-0.1902	-0.0374	-0.1532	-0.0011	
    21	-0.2495	 0.0197	-0.0004	 0.0000	-0.0320	 0.0472	-0.0865	 0.0670	-0.1703	-0.0518	-0.0004	 0.0000	-0.2111	-0.0369	-0.1605	-0.0056	
    22	-0.2495	 0.0197	-0.0004	 0.0000	-0.0192	 0.0283	-0.1283	 0.0680	-0.2047	-0.0464	-0.0004	 0.0000	-0.2319	-0.0365	-0.1541	-0.0150	
    23	-0.2815	 0.0669	-0.0004	 0.0000	-0.0192	 0.0283	-0.1283	 0.0680	-0.2192	-0.0553	-0.0004	 0.0000	-0.2392	-0.0409	-0.1613	-0.0195	
    24	-0.1635	 0.0595	-0.0004	 0.0000	 0.0281	 0.0040	-0.1283	 0.0680	-0.2810	-0.0399	-0.0004	 0.0000	-0.2600	-0.0404	-0.1822	-0.0190	
    25	-0.1955	 0.1067	-0.0004	 0.0000	 0.0281	 0.0040	-0.0737	 0.0482	-0.2954	-0.0489	-0.0004	 0.0000	-0.2881	-0.0444	-0.2030	-0.0185	
    26	-0.1955	 0.1067	-0.0004	 0.0000	 0.0281	 0.0040	-0.0192	 0.0283	-0.2954	-0.0489	-0.0004	 0.0000	-0.2953	-0.0489	-0.1966	-0.0280	
    27	-0.4770	 0.1736	-0.0004	 0.0000	-0.0345	 0.0055	-0.1091	 0.0397	-0.3163	-0.0484	-0.0004	 0.0000	-0.3162	-0.0484	-0.2311	-0.0225	
    28	-0.4450	 0.1264	-0.0004	 0.0000	-0.0690	 0.0109	-0.1636	 0.0595	-0.2954	-0.0489	-0.0004	 0.0000	-0.3234	-0.0529	-0.2447	-0.0175	
    29	-0.5950	 0.1810	-0.0004	 0.0000	-0.1244	 0.0168	-0.2598	 0.0804	-0.3163	-0.0484	-0.0004	 0.0000	-0.3379	-0.0619	-0.2456	-0.0315	
    30	-0.5630	 0.1338	-0.0004	 0.0000	-0.1460	 0.0034	-0.2815	 0.0669	-0.3243	-0.0668	-0.0004	 0.0000	-0.3524	-0.0708	-0.2664	-0.0310	
    31	-0.4450	 0.1264	-0.0004	 0.0000	-0.1460	 0.0034	-0.2687	 0.0481	-0.3524	-0.0708	-0.0004	 0.0000	-0.3869	-0.0654	-0.2873	-0.0305	
    32	-0.4450	 0.1264	-0.0004	 0.0000	-0.2214	 0.0237	-0.3104	 0.0490	-0.3605	-0.0892	-0.0004	 0.0000	-0.4149	-0.0694	-0.2945	-0.0350	
    33	-0.1315	 0.0123	-0.0004	 0.0000	-0.2150	 0.0143	-0.3232	 0.0679	-0.3814	-0.0887	-0.0004	 0.0000	-0.4294	-0.0783	-0.3018	-0.0394	
    34	-0.2495	 0.0197	-0.0004	 0.0000	-0.2295	 0.0053	-0.3650	 0.0689	-0.3541	-0.0986	-0.0004	 0.0000	-0.4639	-0.0729	-0.3298	-0.0434	
    35	-0.3811	 0.0321	-0.0004	 0.0000	-0.2921	 0.0068	-0.4067	 0.0698	-0.3686	-0.1076	-0.0004	 0.0000	-0.4711	-0.0773	-0.3298	-0.0434	
    36	-0.3811	 0.0321	-0.0004	 0.0000	-0.2857	-0.0026	-0.4195	 0.0887	-0.3878	-0.0793	-0.0004	 0.0000	-0.4639	-0.0729	-0.3226	-0.0390	
    37	-0.3811	 0.0321	-0.0004	 0.0000	-0.2512	-0.0081	-0.3232	 0.0679	-0.3524	-0.0708	-0.0004	 0.0000	-0.4494	-0.0639	-0.2873	-0.0305	
    38	-0.2495	 0.0197	-0.0004	 0.0000	-0.2640	 0.0108	-0.2815	 0.0669	-0.3243	-0.0668	-0.0004	 0.0000	-0.4005	-0.0604	-0.2456	-0.0315	
    39	-0.2495	 0.0197	-0.0004	 0.0000	-0.1397	-0.0060	-0.1636	 0.0595	-0.3035	-0.0673	-0.0004	 0.0000	-0.3788	-0.0470	-0.1966	-0.0280	
    40	-0.2495	 0.0197	-0.0004	 0.0000	-0.1588	 0.0223	-0.0737	 0.0482	-0.2401	-0.0548	-0.0004	 0.0000	-0.3298	-0.0435	-0.1749	-0.0145	
    41	-0.0996	-0.0349	-0.0004	 0.0000	-0.1163	 0.0352	 0.0097	 0.0462	-0.1639	-0.0612	-0.0004	 0.0000	-0.2809	-0.0400	-0.1532	-0.0011	
    42	-0.2495	 0.0197	-0.0004	 0.0000	-0.0818	 0.0298	 0.0097	 0.0462	-0.1157	-0.0717	-0.0004	 0.0000	-0.2456	-0.0315	-0.1051	-0.0115	
    43	-0.2495	 0.0197	-0.0004	 0.0000	-0.0601	 0.0432	 0.0514	 0.0453	-0.0668	-0.0681	-0.0004	 0.0000	-0.2102	-0.0230	-0.0906	-0.0025	
    44	-0.2495	 0.0197	-0.0004	 0.0000	-0.0601	 0.0432	 0.0514	 0.0453	-0.0587	-0.0498	-0.0004	 0.0000	-0.1685	-0.0240	-0.0698	-0.0030	
    45	-0.1315	 0.0123	-0.0004	 0.0000	-0.0192	 0.0283	 0.0514	 0.0453	-0.0715	-0.0309	-0.0004	 0.0000	-0.1404	-0.0200	-0.0489	-0.0035	
    46	 0.0000	-0.0000	-0.0004	 0.0000	-0.0320	 0.0472	 0.0932	 0.0443	-0.0507	-0.0314	-0.0004	 0.0000	-0.1196	-0.0205	-0.0345	 0.0054	
    47	-0.1315	 0.0123	-0.0004	 0.0000	-0.0320	 0.0472	 0.0514	 0.0453	-0.0507	-0.0314	-0.0004	 0.0000	-0.0987	-0.0210	-0.0345	 0.0054	
    48	 0.1180	-0.0074	-0.0004	 0.0000	 0.0297	 0.0318	 0.1477	 0.0244	-0.0098	-0.0462	-0.0004	 0.0000	-0.0915	-0.0165	-0.0272	 0.0099	
    49	-0.0320	 0.0472	-0.0004	 0.0000	 0.0297	 0.0318	 0.0932	 0.0443	 0.0047	-0.0373	-0.0004	 0.0000	-0.0842	-0.0120	-0.0272	 0.0099	
    50	-0.0320	 0.0472	-0.0004	 0.0000	 0.0297	 0.0318	 0.0932	 0.0443	 0.0128	-0.0189	-0.0004	 0.0000	-0.0634	-0.0125	-0.0136	 0.0050	
    51	-0.0640	 0.0944	-0.0004	 0.0000	 0.0297	 0.0318	 0.0932	 0.0443	-0.0000	-0.0000	-0.0004	 0.0000	-0.0561	-0.0080	-0.0200	 0.0144	
    52	-0.1955	 0.1067	-0.0004	 0.0000	 0.0025	 0.0418	-0.0031	 0.0651	 0.0128	-0.0189	-0.0004	 0.0000	-0.0425	-0.0130	-0.0200	 0.0144	
    53	-0.1955	 0.1067	-0.0004	 0.0000	 0.0233	 0.0413	 0.0386	 0.0641	 0.0537	-0.0338	-0.0004	 0.0000	-0.0289	-0.0180	-0.0200	 0.0144	
    54	-0.1955	 0.1067	-0.0004	 0.0000	 0.0514	 0.0453	 0.0868	 0.0537	 0.0537	-0.0338	-0.0004	 0.0000	-0.0216	-0.0135	-0.0064	 0.0094	
    55	-0.1955	 0.1067	-0.0004	 0.0000	 0.0923	 0.0304	 0.0868	 0.0537	 0.0681	-0.0248	-0.0004	 0.0000	-0.0216	-0.0135	-0.0064	 0.0094	
    56	-0.4450	 0.1264	-0.0004	 0.0000	 0.0233	 0.0413	-0.0159	 0.0840	 0.0409	-0.0149	-0.0004	 0.0000	-0.0144	-0.0090	-0.0200	 0.0144	
    57	-0.4450	 0.1264	-0.0004	 0.0000	 0.0233	 0.0413	-0.0704	 0.1038	 0.0409	-0.0149	-0.0004	 0.0000	-0.0144	-0.0090	-0.0128	 0.0189	
    58	-0.5950	 0.1810	-0.0004	 0.0000	 0.0217	 0.0134	-0.1666	 0.1246	 0.0537	-0.0338	-0.0004	 0.0000	-0.0144	-0.0090	-0.0264	 0.0238	
    59	-0.4770	 0.1736	-0.0004	 0.0000	 0.0898	-0.0114	-0.1121	 0.1048	 0.0256	-0.0378	-0.0004	 0.0000	-0.0144	-0.0090	-0.0336	 0.0194	
    60	-0.3135	 0.1141	-0.0004	 0.0000	 0.0770	 0.0075	-0.1538	 0.1058	-0.0226	-0.0274	12.2084	-18.0095	-0.0353	-0.0085	-0.0208	 0.0005	
    61	-0.0320	 0.0472	-0.0004	 0.0000	 0.0642	 0.0264	-0.0993	 0.0859	-0.0507	-0.0314	17.8841	-26.3819	-0.0425	-0.0130	-0.0553	 0.0059	
    62	 0.1180	-0.0074	-0.0004	 0.0000	 0.0923	 0.0304	-0.0576	 0.0850	-0.0634	-0.0125	15.4078	-22.7290	-0.0425	-0.0130	-0.0762	 0.0064	
    63	 0.0000	-0.0000	-0.0004	 0.0000	 0.0642	 0.0264	-0.0865	 0.0670	-0.0634	-0.0125	15.4078	-22.7290	-0.0497	-0.0175	-0.0698	-0.0030	
    64	-0.2175	-0.0275	-0.0004	 0.0000	 0.0089	 0.0323	-0.1764	 0.0784	-0.0907	-0.0026	12.2084	-18.0095	-0.0634	-0.0125	-0.0834	 0.0019	
    65	-0.3811	 0.0321	-0.0004	 0.0000	 0.0217	 0.0134	-0.1636	 0.0595	-0.0634	-0.0125	-0.0004	 0.0000	-0.0634	-0.0125	-0.0698	-0.0030	
    66	-0.3811	 0.0321	-0.0004	 0.0000	-0.0192	 0.0283	-0.2053	 0.0605	-0.0634	-0.0125	-0.0004	 0.0000	-0.0706	-0.0170	-0.0762	 0.0064	
    67	-0.5310	 0.0866	-0.0004	 0.0000	-0.0409	 0.0149	-0.2406	 0.0520	-0.0779	-0.0214	-0.0004	 0.0000	-0.0842	-0.0120	-0.0970	 0.0069	
    68	-0.5630	 0.1338	-0.0004	 0.0000	-0.0128	 0.0189	-0.2406	 0.0520	-0.0715	-0.0309	-0.0004	 0.0000	-0.0915	-0.0165	-0.1107	 0.0119	
    69	-0.5630	 0.1338	-0.0004	 0.0000	-0.0000	 0.0000	-0.2406	 0.0520	-0.0715	-0.0309	-0.0004	 0.0000	-0.0987	-0.0210	-0.1179	 0.0074	
    70	-0.4450	 0.1264	-0.0004	 0.0000	 0.0409	-0.0149	-0.1861	 0.0322	-0.0587	-0.0498	-0.0004	 0.0000	-0.1196	-0.0205	-0.1388	 0.0079	
    71	-0.4450	 0.1264	-0.0004	 0.0000	 0.0128	-0.0189	-0.1861	 0.0322	-0.0587	-0.0498	-0.0004	 0.0000	-0.1132	-0.0299	-0.1187	-0.0065	
    72	-0.5310	 0.0866	-0.0004	 0.0000	-0.0498	-0.0174	-0.2150	 0.0143	-0.0796	-0.0493	-0.0004	 0.0000	-0.1204	-0.0344	-0.1324	-0.0016	
    73	-0.3491	-0.0151	-0.0004	 0.0000	-0.1052	-0.0115	-0.2976	 0.0301	-0.0796	-0.0493	-0.0004	 0.0000	-0.1340	-0.0294	-0.1460	 0.0034	
    74	-0.3491	-0.0151	-0.0004	 0.0000	-0.1397	-0.0060	-0.3458	 0.0406	-0.0940	-0.0582	-0.0004	 0.0000	-0.1485	-0.0384	-0.1532	-0.0011	
    75	-0.3491	-0.0151	-0.0004	 0.0000	-0.1397	-0.0060	-0.3522	 0.0500	-0.2111	-0.0369	-0.0004	 0.0000	-0.1693	-0.0379	-0.1605	-0.0056	
    76	-0.3491	-0.0151	-0.0004	 0.0000	-0.1805	 0.0088	-0.4067	 0.0698	-0.2320	-0.0364	-0.0004	 0.0000	-0.1902	-0.0374	-0.1949	-0.0001	
    77	-0.3491	-0.0151	-0.0004	 0.0000	-0.1397	-0.0060	-0.4067	 0.0698	-0.2810	-0.0399	 7.7037	-11.3645	-0.2047	-0.0464	-0.2094	-0.0091	
    78	-0.4670	-0.0078	-0.0004	 0.0000	-0.1741	-0.0006	-0.4612	 0.0897	-0.3082	-0.0300	 7.7037	-11.3645	-0.2255	-0.0459	-0.2303	-0.0086	
    79	-0.4990	 0.0394	-0.0004	 0.0000	-0.1741	-0.0006	-0.4740	 0.1086	-0.3227	-0.0390	 7.7037	-11.3645	-0.2464	-0.0454	-0.2511	-0.0081	
    80	-0.4990	 0.0394	-0.0004	 0.0000	-0.1958	-0.0140	-0.5093	 0.1001	-0.3082	-0.0300	-0.0004	 0.0000	-0.2536	-0.0499	-0.2584	-0.0126	
    81	-0.6626	 0.0990	-0.0004	 0.0000	-0.2103	-0.0230	-0.5246	 0.0772	-0.3355	-0.0201	-0.0004	 0.0000	-0.2609	-0.0544	-0.2584	-0.0126	
    82	-0.6626	 0.0990	-0.0004	 0.0000	-0.2448	-0.0175	-0.4709	 0.0435	-0.3227	-0.0390	-0.0004	 0.0000	-0.2889	-0.0584	-0.2728	-0.0215	
    83	-0.6945	 0.1462	-0.0004	 0.0000	-0.2384	-0.0270	-0.4164	 0.0236	-0.3435	-0.0385	-0.0004	 0.0000	-0.3098	-0.0579	-0.2937	-0.0211	
    84	-0.5630	 0.1338	-0.0004	 0.0000	-0.2256	-0.0458	-0.3619	 0.0038	-0.3163	-0.0484	-0.0004	 0.0000	-0.3243	-0.0668	-0.2945	-0.0350	
    85	-0.5310	 0.0866	-0.0004	 0.0000	-0.2601	-0.0404	-0.4517	 0.0152	-0.3243	-0.0668	-0.0004	 0.0000	-0.3588	-0.0614	-0.3154	-0.0345	
    86	-0.7805	 0.1064	-0.0004	 0.0000	-0.3154	-0.0345	-0.4798	 0.0112	-0.3116	-0.0857	-0.0004	 0.0000	-0.3796	-0.0609	-0.3090	-0.0439	
    87	-0.7805	 0.1064	-0.0004	 0.0000	-0.3090	-0.0439	-0.4798	 0.0112	-0.3652	-0.0519	-0.0004	 0.0000	-0.3796	-0.0609	-0.3154	-0.0345	
    88	-0.6626	 0.0990	-0.0004	 0.0000	-0.3090	-0.0439	-0.4926	 0.0300	-0.3716	-0.0425	-0.0004	 0.0000	-0.3724	-0.0564	-0.2873	-0.0305	
    89	-0.5310	 0.0866	-0.0004	 0.0000	-0.2882	-0.0444	-0.4709	 0.0435	-0.3716	-0.0425	-0.0004	 0.0000	-0.3443	-0.0524	-0.2592	-0.0265	
    90	-0.4130	 0.0793	-0.0004	 0.0000	-0.2384	-0.0270	-0.3458	 0.0406	-0.3227	-0.0390	-0.0004	 0.0000	-0.2953	-0.0489	-0.2239	-0.0180	
    91	-0.2815	 0.0669	-0.0004	 0.0000	-0.1830	-0.0329	-0.2687	 0.0481	-0.2593	-0.0265	-0.0004	 0.0000	-0.2600	-0.0404	-0.1949	-0.0001	
    92	-0.1635	 0.0595	-0.0004	 0.0000	-0.1613	-0.0195	-0.1380	 0.0218	-0.1831	-0.0329	-0.0004	 0.0000	-0.2175	-0.0275	-0.1532	-0.0011	
    93	-0.3135	 0.1141	-0.0004	 0.0000	-0.1741	-0.0006	-0.1380	 0.0218	-0.1477	-0.0245	-0.0004	 0.0000	-0.1757	-0.0285	-0.1115	-0.0021	
    94	-0.4450	 0.1264	-0.0004	 0.0000	-0.1741	-0.0006	-0.0963	 0.0208	-0.0988	-0.0209	-0.0004	 0.0000	-0.1404	-0.0200	-0.0834	 0.0019	
    95	-0.2815	 0.0669	-0.0004	 0.0000	-0.1805	 0.0088	-0.0963	 0.0208	-0.0634	-0.0125	-0.0004	 0.0000	-0.1123	-0.0160	-0.0625	 0.0014	
    96	-0.1315	 0.0123	-0.0004	 0.0000	-0.1180	 0.0074	-0.0545	 0.0199	-0.0226	-0.0274	-0.0004	 0.0000	-0.0842	-0.0120	-0.0417	 0.0010	
    97	-0.1315	 0.0123	-0.0004	 0.0000	-0.1180	 0.0074	-0.0963	 0.0208	-0.0017	-0.0279	-0.0004	 0.0000	-0.0561	-0.0080	-0.0208	 0.0005	
    98	 0.0320	-0.0472	-0.0004	 0.0000	-0.0690	 0.0109	-0.0545	 0.0199	-0.0017	-0.0279	-0.0004	 0.0000	-0.0353	-0.0085	-0.0136	 0.0050	
    99	 0.0000	-0.0000	-0.0004	 0.0000	-0.0345	 0.0055	-0.0545	 0.0199	 0.0409	-0.0149	-0.0004	 0.0000	-0.0208	 0.0004	-0.0064	 0.0094	
   100	 0.0000	-0.0000	-0.0004	 0.0000	-0.0000	 0.0000	-0.0000	 0.0000	-0.0000	-0.0000	-0.0004	 0.0000	 0.0001	-0.0000	 0.0000	-0.0000	
   101	-0.0996	-0.0349	-0.0004	 0.0000	-0.0409	 0.0149	-0.0417	 0.0010	 0.0409	-0.0149	-0.0004	 0.0000	 0.0137	-0.0050	-0.0064	 0.0094	
   102	-0.2175	-0.0275	-0.0004	 0.0000	-0.0690	 0.0109	-0.1380	 0.0218	 0.0345	-0.0055	-0.0004	 0.0000	 0.0209	-0.0005	 0.0073	 0.0045	
   103	-0.0996	-0.0349	-0.0004	 0.0000	-0.1099	 0.0258	-0.1925	 0.0416	 0.0617	-0.0154	-0.0004	 0.0000	 0.0281	 0.0039	 0.0009	 0.0139	
   104	-0.0996	-0.0349	-0.0004	 0.0000	-0.0690	 0.0109	-0.1925	 0.0416	 0.0409	-0.0149	-0.0004	 0.0000	 0.0281	 0.0039	-0.0128	 0.0189	
   105	-0.0996	-0.0349	-0.0004	 0.0000	-0.0690	 0.0109	-0.2470	 0.0615	 0.0617	-0.0154	-0.0004	 0.0000	 0.0418	-0.0010	-0.0200	 0.0144	
   106	-0.0996	-0.0349	-0.0004	 0.0000	-0.0345	 0.0055	-0.1925	 0.0416	 0.0681	-0.0248	-0.0004	 0.0000	 0.0418	-0.0010	-0.0200	 0.0144	
   107	 0.0320	-0.0472	-0.0004	 0.0000	-0.0000	 0.0000	-0.1508	 0.0407	 0.0681	-0.0248	-0.0004	 0.0000	 0.0354	 0.0084	-0.0200	 0.0144	
   108	-0.2495	 0.0197	-0.0004	 0.0000	-0.0345	 0.0055	-0.1861	 0.0322	 0.0890	-0.0253	-0.0004	 0.0000	 0.0490	 0.0035	-0.0136	 0.0050	
   109	-0.3491	-0.0151	-0.0004	 0.0000	-0.0690	 0.0109	-0.2278	 0.0332	 0.0890	-0.0253	-0.0004	 0.0000	 0.0554	-0.0060	-0.0272	 0.0099	
   110	-0.2175	-0.0275	-0.0004	 0.0000	-0.0562	-0.0080	-0.2559	 0.0292	 0.0762	-0.0064	-0.0004	 0.0000	 0.0554	-0.0060	-0.0272	 0.0099	
   111	-0.2495	 0.0197	-0.0004	 0.0000	-0.0281	-0.0040	-0.2431	 0.0103	 0.0409	-0.0149	 7.7037	-11.3645	 0.0281	 0.0039	-0.0272	 0.0099	
   112	-0.2495	 0.0197	-0.0004	 0.0000	-0.0562	-0.0080	-0.2431	 0.0103	-0.0000	-0.0000	-0.0004	 0.0000	 0.0345	-0.0055	-0.0345	 0.0054	
   113	-0.1315	 0.0123	-0.0004	 0.0000	-0.0281	-0.0040	-0.2559	 0.0292	-0.0000	-0.0000	 7.7037	-11.3645	 0.0273	-0.0100	-0.0553	 0.0059	
   114	-0.2495	 0.0197	-0.0004	 0.0000	-0.0562	-0.0080	-0.2431	 0.0103	-0.0145	-0.0090	 7.7037	-11.3645	 0.0137	-0.0050	-0.0625	 0.0014	
   115	-0.2495	 0.0197	-0.0004	 0.0000	-0.0562	-0.0080	-0.2431	 0.0103	-0.0418	 0.0010	-0.0004	 0.0000	 0.0064	-0.0095	-0.0698	-0.0030	
   116	-0.4130	 0.0793	-0.0004	 0.0000	-0.0971	 0.0069	-0.2912	 0.0207	-0.0546	 0.0198	-0.0004	 0.0000	 0.0064	-0.0095	-0.0698	-0.0030	
   117	-0.3811	 0.0321	-0.0004	 0.0000	-0.0907	-0.0025	-0.2784	 0.0018	-0.0546	 0.0198	-0.0004	 0.0000	-0.0144	-0.0090	-0.0834	 0.0019	
   118	-0.4130	 0.0793	-0.0004	 0.0000	-0.0988	-0.0209	-0.3202	 0.0028	-0.0826	 0.0158	-0.0004	 0.0000	-0.0216	-0.0135	-0.1043	 0.0024	
   119	-0.5630	 0.1338	-0.0004	 0.0000	-0.0988	-0.0209	-0.3074	-0.0161	-0.0907	-0.0026	-0.0004	 0.0000	-0.0289	-0.0180	-0.1115	-0.0021	
   120	-0.5630	 0.1338	-0.0004	 0.0000	-0.1333	-0.0155	-0.3074	-0.0161	-0.1180	 0.0074	-0.0004	 0.0000	-0.0425	-0.0130	-0.1051	-0.0115	
   121	-0.6945	 0.1462	-0.0004	 0.0000	-0.1805	 0.0088	-0.3074	-0.0161	-0.1260	-0.0110	 7.7037	-11.3645	-0.0570	-0.0219	-0.1260	-0.0110	
   122	-0.8125	 0.1536	-0.0004	 0.0000	-0.2150	 0.0143	-0.4709	 0.0435	-0.1260	-0.0110	 7.7037	-11.3645	-0.0642	-0.0264	-0.1532	-0.0011	
   123	-0.7805	 0.1064	-0.0004	 0.0000	-0.2295	 0.0053	-0.5054	 0.0489	-0.1541	-0.0150	 7.7037	-11.3645	-0.0851	-0.0259	-0.1605	-0.0056	
   124	-0.7805	 0.1064	-0.0004	 0.0000	-0.2231	-0.0041	-0.5599	 0.0688	-0.1132	-0.0299	 7.7037	-11.3645	-0.0987	-0.0210	-0.1605	-0.0056	
   125	-0.6306	 0.0518	-0.0004	 0.0000	-0.1958	-0.0140	-0.6017	 0.0697	-0.1477	-0.0245	 7.7037	-11.3645	-0.1132	-0.0299	-0.1677	-0.0100	
   126	-0.6306	 0.0518	-0.0004	 0.0000	-0.2231	-0.0041	-0.5471	 0.0499	-0.1895	-0.0235	12.2084	-18.0095	-0.1340	-0.0294	-0.1886	-0.0096	
   127	-0.6945	 0.1462	-0.0004	 0.0000	-0.1958	-0.0140	-0.4645	 0.0340	-0.2239	-0.0180	15.4078	-22.7290	-0.1348	-0.0434	-0.2030	-0.0185	
   128	-0.5630	 0.1338	-0.0004	 0.0000	-0.1958	-0.0140	-0.3972	-0.0047	-0.2384	-0.0270	15.4078	-22.7290	-0.1693	-0.0379	-0.2375	-0.0131	
   129	-0.4130	 0.0793	-0.0004	 0.0000	-0.1958	-0.0140	-0.3972	-0.0047	-0.2593	-0.0265	15.4078	-22.7290	-0.1838	-0.0469	-0.2456	-0.0315	
   130	-0.3811	 0.0321	-0.0004	 0.0000	-0.2640	 0.0108	-0.4517	 0.0152	-0.2320	-0.0364	12.2084	-18.0095	-0.1910	-0.0513	-0.2392	-0.0409	
   131	-0.4990	 0.0394	-0.0004	 0.0000	-0.3474	 0.0127	-0.5216	 0.0121	-0.2465	-0.0454	12.2084	-18.0095	-0.2255	-0.0459	-0.2464	-0.0454	
   132	-0.4990	 0.0394	-0.0004	 0.0000	-0.3474	 0.0127	-0.5152	 0.0027	-0.2465	-0.0454	 7.7037	-11.3645	-0.2328	-0.0504	-0.2600	-0.0404	
   133	-0.3491	-0.0151	-0.0004	 0.0000	-0.3691	-0.0007	-0.5986	 0.0046	-0.2810	-0.0399	-0.0004	 0.0000	-0.2536	-0.0499	-0.2809	-0.0399	
   134	-0.3171	-0.0623	-0.0004	 0.0000	-0.3563	-0.0196	-0.5986	 0.0046	-0.2890	-0.0583	-0.0004	 0.0000	-0.2817	-0.0539	-0.2881	-0.0444	
   135	-0.3491	-0.0151	-0.0004	 0.0000	-0.3154	-0.0345	-0.5569	 0.0037	-0.2762	-0.0772	-0.0004	 0.0000	-0.2825	-0.0678	-0.2954	-0.0489	
   136	-0.3811	 0.0321	-0.0004	 0.0000	-0.3154	-0.0345	-0.5569	 0.0037	-0.2971	-0.0767	-0.0004	 0.0000	-0.2970	-0.0767	-0.3234	-0.0529	
   137	-0.4670	-0.0078	-0.0004	 0.0000	-0.4253	-0.0087	-0.6531	 0.0245	-0.3116	-0.0857	-0.0004	 0.0000	-0.3315	-0.0713	-0.3443	-0.0524	
   138	-0.4670	-0.0078	-0.0004	 0.0000	-0.4334	-0.0271	-0.6339	-0.0038	-0.3460	-0.0802	-0.0004	 0.0000	-0.3460	-0.0803	-0.3579	-0.0474	
   139	-0.6306	 0.0518	-0.0004	 0.0000	-0.4679	-0.0216	-0.6748	 0.0110	-0.3733	-0.0703	-0.0004	 0.0000	-0.3668	-0.0798	-0.3579	-0.0474	
   140	-0.7485	 0.0592	-0.0004	 0.0000	-0.4487	-0.0499	-0.6620	-0.0078	-0.3733	-0.0703	-0.0004	 0.0000	-0.3596	-0.0753	-0.3443	-0.0524	
   141	-0.6306	 0.0518	-0.0004	 0.0000	-0.4142	-0.0554	-0.6339	-0.0038	-0.3524	-0.0708	-0.0004	 0.0000	-0.3387	-0.0758	-0.3298	-0.0434	
   142	-0.6306	 0.0518	-0.0004	 0.0000	-0.4061	-0.0370	-0.5569	 0.0037	-0.3307	-0.0574	-0.0004	 0.0000	-0.3106	-0.0718	-0.2881	-0.0444	
   143	-0.4990	 0.0394	-0.0004	 0.0000	-0.3435	-0.0385	-0.4389	-0.0037	-0.2682	-0.0588	-0.0004	 0.0000	-0.2817	-0.0539	-0.2528	-0.0359	
   144	-0.5986	 0.0046	-0.0004	 0.0000	-0.3435	-0.0385	-0.4517	 0.0152	-0.2192	-0.0553	-0.0004	 0.0000	-0.2400	-0.0548	-0.2319	-0.0364	
   145	-0.4670	-0.0078	-0.0004	 0.0000	-0.3154	-0.0345	-0.3619	 0.0038	-0.1285	-0.0528	-0.0004	 0.0000	-0.2047	-0.0464	-0.1830	-0.0329	
   146	-0.4350	-0.0549	-0.0004	 0.0000	-0.3154	-0.0345	-0.3747	 0.0227	-0.1068	-0.0393	-0.0004	 0.0000	-0.1830	-0.0329	-0.1549	-0.0289	
   147	-0.4990	 0.0394	-0.0004	 0.0000	-0.2601	-0.0404	-0.3202	 0.0028	-0.0860	-0.0398	-0.0004	 0.0000	-0.1348	-0.0434	-0.1340	-0.0294	
   148	-0.3491	-0.0151	-0.0004	 0.0000	-0.2256	-0.0458	-0.2784	 0.0018	-0.0988	-0.0209	-0.0004	 0.0000	-0.1276	-0.0389	-0.1204	-0.0344	
   149	-0.2495	 0.0197	-0.0004	 0.0000	-0.1766	-0.0423	-0.2367	 0.0009	-0.0779	-0.0214	-0.0004	 0.0000	-0.1132	-0.0299	-0.0995	-0.0349	
   150	-0.1315	 0.0123	-0.0004	 0.0000	-0.1141	-0.0438	-0.1605	-0.0056	-0.0634	-0.0125	-0.0004	 0.0000	-0.0923	-0.0304	-0.0995	-0.0349	
   151	-0.2495	 0.0197	-0.0004	 0.0000	-0.1549	-0.0289	-0.2022	-0.0046	-0.0145	-0.0090	-0.0004	 0.0000	-0.0714	-0.0309	-0.0923	-0.0304	
   152	-0.2495	 0.0197	-0.0004	 0.0000	-0.2022	-0.0046	-0.2022	-0.0046	-0.0273	 0.0099	-0.0004	 0.0000	-0.0578	-0.0359	-0.0923	-0.0304	
   153	-0.1315	 0.0123	-0.0004	 0.0000	-0.2022	-0.0046	-0.2022	-0.0046	-0.0000	-0.0000	-0.0004	 0.0000	-0.0506	-0.0314	-0.0987	-0.0209	
   154	-0.1315	 0.0123	-0.0004	 0.0000	-0.1613	-0.0195	-0.2022	-0.0046	-0.0145	-0.0090	-0.0004	 0.0000	-0.0506	-0.0314	-0.0987	-0.0209	
   155	-0.0996	-0.0349	-0.0004	 0.0000	-0.2022	-0.0046	-0.2367	 0.0009	-0.0226	-0.0274	-0.0004	 0.0000	-0.0506	-0.0314	-0.0987	-0.0209	
   156	-0.0996	-0.0349	-0.0004	 0.0000	-0.1741	-0.0006	-0.2022	-0.0046	-0.0634	-0.0125	 7.7037	-11.3645	-0.0506	-0.0314	-0.0923	-0.0304	
   157	 0.1819	-0.1018	-0.0004	 0.0000	-0.1397	-0.0060	-0.1605	-0.0056	-0.0290	-0.0179	 7.7037	-11.3645	-0.0506	-0.0314	-0.0859	-0.0398	
   158	-0.0996	-0.0349	-0.0004	 0.0000	-0.1805	 0.0088	-0.2150	 0.0143	-0.0634	-0.0125	12.2084	-18.0095	-0.0506	-0.0314	-0.0859	-0.0398	
   159	-0.0996	-0.0349	-0.0004	 0.0000	-0.1805	 0.0088	-0.2150	 0.0143	-0.0290	-0.0179	 7.7037	-11.3645	-0.0506	-0.0314	-0.0995	-0.0349	
   160	-0.2495	 0.0197	-0.0004	 0.0000	-0.1741	-0.0006	-0.2431	 0.0103	-0.0290	-0.0179	 7.7037	-11.3645	-0.0369	-0.0363	-0.0995	-0.0349	
   161	-0.2495	 0.0197	-0.0004	 0.0000	-0.1205	-0.0344	-0.2976	 0.0301	-0.0290	-0.0179	 7.7037	-11.3645	-0.0506	-0.0314	-0.1132	-0.0299	
   162	-0.2495	 0.0197	-0.0004	 0.0000	-0.1205	-0.0344	-0.2912	 0.0207	-0.0698	-0.0030	-0.0004	 0.0000	-0.0506	-0.0314	-0.1268	-0.0249	
   163	-0.2495	 0.0197	-0.0004	 0.0000	-0.1205	-0.0344	-0.3458	 0.0406	-0.0290	-0.0179	-0.0004	 0.0000	-0.0506	-0.0314	-0.1404	-0.0200	
   164	-0.2495	 0.0197	-0.0004	 0.0000	-0.1205	-0.0344	-0.3330	 0.0217	-0.0290	-0.0179	-0.0004	 0.0000	-0.0578	-0.0359	-0.1477	-0.0244	
   165	-0.0996	-0.0349	-0.0004	 0.0000	-0.0924	-0.0304	-0.3458	 0.0406	 0.0047	-0.0373	-0.0004	 0.0000	-0.0714	-0.0309	-0.1413	-0.0339	
   166	-0.1315	 0.0123	-0.0004	 0.0000	-0.0715	-0.0308	-0.3522	 0.0500	-0.0226	-0.0274	-0.0004	 0.0000	-0.0787	-0.0354	-0.1485	-0.0384	
   167	-0.2495	 0.0197	-0.0004	 0.0000	-0.1205	-0.0344	-0.3875	 0.0415	 0.0047	-0.0373	-0.0004	 0.0000	-0.0787	-0.0354	-0.1485	-0.0384	
   168	-0.0996	-0.0349	-0.0004	 0.0000	-0.1549	-0.0289	-0.4292	 0.0425	-0.0226	-0.0274	-0.0004	 0.0000	-0.0859	-0.0399	-0.1621	-0.0334	
   169	-0.0996	-0.0349	-0.0004	 0.0000	-0.1421	-0.0478	-0.4100	 0.0142	-0.0507	-0.0314	-0.0004	 0.0000	-0.0931	-0.0443	-0.1830	-0.0329	
   170	-0.2175	-0.0275	-0.0004	 0.0000	-0.1766	-0.0423	-0.4517	 0.0152	-0.0715	-0.0309	-0.0004	 0.0000	-0.1004	-0.0488	-0.1902	-0.0374	
   171	-0.2175	-0.0275	-0.0004	 0.0000	-0.1830	-0.0329	-0.4100	 0.0142	-0.0988	-0.0209	-0.0004	 0.0000	-0.1212	-0.0483	-0.1902	-0.0374	
   172	-0.2495	 0.0197	-0.0004	 0.0000	-0.1958	-0.0140	-0.3619	 0.0038	-0.0860	-0.0398	-0.0004	 0.0000	-0.1284	-0.0528	-0.2111	-0.0369	
   173	-0.2495	 0.0197	-0.0004	 0.0000	-0.1830	-0.0329	-0.3555	-0.0057	-0.0860	-0.0398	-0.0004	 0.0000	-0.1421	-0.0478	-0.2183	-0.0414	
   174	-0.0996	-0.0349	-0.0004	 0.0000	-0.2103	-0.0230	-0.3074	-0.0161	-0.0860	-0.0398	-0.0004	 0.0000	-0.1493	-0.0523	-0.2183	-0.0414	
   175	 0.0320	-0.0472	-0.0004	 0.0000	-0.2039	-0.0324	-0.3555	-0.0057	-0.1132	-0.0299	-0.0004	 0.0000	-0.1702	-0.0518	-0.2392	-0.0409	
   176	-0.1315	 0.0123	-0.0004	 0.0000	-0.2039	-0.0324	-0.4100	 0.0142	-0.1750	-0.0145	-0.0004	 0.0000	-0.1774	-0.0563	-0.2464	-0.0454	
   177	-0.1315	 0.0123	-0.0004	 0.0000	-0.2448	-0.0175	-0.4100	 0.0142	-0.1895	-0.0235	-0.0004	 0.0000	-0.1983	-0.0558	-0.2536	-0.0499	
   178	-0.1315	 0.0123	-0.0004	 0.0000	-0.2384	-0.0270	-0.4517	 0.0152	-0.2111	-0.0369	 7.7037	-11.3645	-0.2264	-0.0598	-0.2745	-0.0494	
   179	-0.2495	 0.0197	-0.0004	 0.0000	-0.2192	-0.0553	-0.4517	 0.0152	-0.2593	-0.0265	12.2084	-18.0095	-0.2408	-0.0688	-0.3026	-0.0534	
   180	-0.4990	 0.0394	-0.0004	 0.0000	-0.2882	-0.0444	-0.5216	 0.0121	-0.2465	-0.0454	12.2084	-18.0095	-0.2753	-0.0633	-0.3234	-0.0529	
   181	-0.4990	 0.0394	-0.0004	 0.0000	-0.2818	-0.0538	-0.5152	 0.0027	-0.2465	-0.0454	12.2084	-18.0095	-0.2825	-0.0678	-0.3234	-0.0529	
   182	-0.4670	-0.0078	-0.0004	 0.0000	-0.2898	-0.0722	-0.5569	 0.0037	-0.2465	-0.0454	 7.7037	-11.3645	-0.2898	-0.0723	-0.3307	-0.0574	
   183	-0.6626	 0.0990	-0.0004	 0.0000	-0.3652	-0.0519	-0.5986	 0.0046	-0.2401	-0.0548	-0.0004	 0.0000	-0.3106	-0.0718	-0.3443	-0.0524	
   184	-0.5310	 0.0866	-0.0004	 0.0000	-0.3243	-0.0668	-0.5441	-0.0152	-0.2273	-0.0737	-0.0004	 0.0000	-0.3115	-0.0857	-0.3379	-0.0618	
   185	-0.4130	 0.0793	-0.0004	 0.0000	-0.3179	-0.0762	-0.5441	-0.0152	-0.2618	-0.0683	-0.0004	 0.0000	-0.3259	-0.0947	-0.3588	-0.0613	
   186	-0.3811	 0.0321	-0.0004	 0.0000	-0.3460	-0.0802	-0.5313	-0.0341	-0.3163	-0.0484	-0.0004	 0.0000	-0.3604	-0.0892	-0.3796	-0.0609	
   187	-0.2495	 0.0197	-0.0004	 0.0000	-0.3460	-0.0802	-0.5441	-0.0152	-0.3163	-0.0484	-0.0004	 0.0000	-0.3749	-0.0982	-0.3869	-0.0653	
   188	-0.4130	 0.0793	-0.0004	 0.0000	-0.3677	-0.0936	-0.5794	-0.0237	-0.3307	-0.0574	-0.0004	 0.0000	-0.3957	-0.0977	-0.4013	-0.0743	
   189	-0.5310	 0.0866	-0.0004	 0.0000	-0.4295	-0.0783	-0.6620	-0.0078	-0.3163	-0.0484	-0.0004	 0.0000	-0.4166	-0.0972	-0.4077	-0.0648	
   190	-0.5310	 0.0866	-0.0004	 0.0000	-0.4231	-0.0877	-0.6492	-0.0267	-0.3716	-0.0425	-0.0004	 0.0000	-0.4238	-0.1017	-0.4077	-0.0648	
   191	-0.4130	 0.0793	-0.0004	 0.0000	-0.3950	-0.0837	-0.5794	-0.0237	-0.3716	-0.0425	-0.0004	 0.0000	-0.4166	-0.0972	-0.4005	-0.0604	
   192	-0.4130	 0.0793	-0.0004	 0.0000	-0.3396	-0.0896	-0.4350	-0.0549	-0.3435	-0.0385	-0.0004	 0.0000	-0.4021	-0.0882	-0.3588	-0.0613	
   193	-0.4450	 0.1264	-0.0004	 0.0000	-0.3243	-0.0668	-0.4261	-0.0226	-0.3082	-0.0300	-0.0004	 0.0000	-0.3668	-0.0798	-0.3171	-0.0623	
   194	-0.4450	 0.1264	-0.0004	 0.0000	-0.2754	-0.0633	-0.3555	-0.0057	-0.2593	-0.0265	-0.0004	 0.0000	-0.3251	-0.0807	-0.2954	-0.0489	
   195	-0.4450	 0.1264	-0.0004	 0.0000	-0.2818	-0.0538	-0.3074	-0.0161	-0.2239	-0.0180	-0.0004	 0.0000	-0.2898	-0.0723	-0.2536	-0.0499	
   196	-0.3135	 0.1141	-0.0004	 0.0000	-0.2601	-0.0404	-0.2784	 0.0018	-0.1750	-0.0145	-0.0004	 0.0000	-0.2545	-0.0638	-0.2319	-0.0364	
   197	-0.3135	 0.1141	-0.0004	 0.0000	-0.2665	-0.0310	-0.2367	 0.0009	-0.1814	-0.0051	-0.0004	 0.0000	-0.2400	-0.0548	-0.2047	-0.0463	
   198	 0.0000	-0.0000	-0.0004	 0.0000	-0.2039	-0.0324	-0.2022	-0.0046	-0.1669	 0.0039	-0.0004	 0.0000	-0.2119	-0.0509	-0.1902	-0.0374	
   199	 0.1180	-0.0074	-0.0004	 0.0000	-0.1421	-0.0478	-0.2278	 0.0332	-0.1132	-0.0299	-0.0004	 0.0000	-0.1910	-0.0513	-0.1766	-0.0424	
   200	 0.2815	-0.0670	-0.0004	 0.0000	-0.1205	-0.0344	-0.1861	 0.0322	-0.0779	-0.0214	-0.0004	 0.0000	-0.1702	-0.0518	-0.1694	-0.0379	
   201	 0.1500	-0.0546	-0.0004	 0.0000	-0.1205	-0.0344	-0.2406	 0.0520	-0.0634	-0.0125	-0.0004	 0.0000	-0.1629	-0.0473	-0.1557	-0.0428	
   202	 0.1500	-0.0546	-0.0004	 0.0000	-0.0796	-0.0492	-0.1861	 0.0322	-0.0290	-0.0179	-0.0004	 0.0000	-0.1421	-0.0478	-0.1485	-0.0384	
   203	 0.1500	-0.0546	-0.0004	 0.0000	-0.0924	-0.0304	-0.2470	 0.0615	-0.0290	-0.0179	-0.0004	 0.0000	-0.1348	-0.0434	-0.1485	-0.0384	
   204	 0.0320	-0.0472	-0.0004	 0.0000	-0.0796	-0.0492	-0.2687	 0.0481	-0.0418	 0.0010	-0.0004	 0.0000	-0.1212	-0.0483	-0.1485	-0.0384	
   205	 0.0320	-0.0472	-0.0004	 0.0000	-0.1141	-0.0438	-0.2559	 0.0292	-0.0290	-0.0179	-0.0004	 0.0000	-0.1140	-0.0438	-0.1485	-0.0384	
   206	 0.1500	-0.0546	-0.0004	 0.0000	-0.0651	-0.0403	-0.2278	 0.0332	-0.0017	-0.0279	-0.0004	 0.0000	-0.1004	-0.0488	-0.1549	-0.0289	
   207	 0.1180	-0.0074	-0.0004	 0.0000	-0.0715	-0.0308	-0.1861	 0.0322	-0.0017	-0.0279	-0.0004	 0.0000	-0.1004	-0.0488	-0.1549	-0.0289	
   208	-0.0320	 0.0472	-0.0004	 0.0000	-0.0779	-0.0214	-0.1861	 0.0322	 0.0128	-0.0189	-0.0004	 0.0000	-0.0931	-0.0443	-0.1549	-0.0289	
   209	-0.1635	 0.0595	-0.0004	 0.0000	-0.0988	-0.0209	-0.2278	 0.0332	 0.0537	-0.0338	-0.0004	 0.0000	-0.0795	-0.0493	-0.1477	-0.0244	
   210	-0.3135	 0.1141	-0.0004	 0.0000	-0.1397	-0.0060	-0.2150	 0.0143	 0.0537	-0.0338	-0.0004	 0.0000	-0.0795	-0.0493	-0.1477	-0.0244	
   211	-0.2815	 0.0669	-0.0004	 0.0000	-0.1397	-0.0060	-0.2150	 0.0143	 0.0537	-0.0338	-0.0004	 0.0000	-0.0795	-0.0493	-0.1413	-0.0339	
   212	-0.3135	 0.1141	-0.0004	 0.0000	-0.0924	-0.0304	-0.2431	 0.0103	 0.0128	-0.0189	-0.0004	 0.0000	-0.0859	-0.0399	-0.1413	-0.0339	
   213	-0.1955	 0.1067	-0.0004	 0.0000	-0.0779	-0.0214	-0.2150	 0.0143	 0.0128	-0.0189	-0.0004	 0.0000	-0.0795	-0.0493	-0.1485	-0.0384	
   214	-0.1635	 0.0595	-0.0004	 0.0000	-0.0779	-0.0214	-0.2150	 0.0143	 0.0256	-0.0378	-0.0004	 0.0000	-0.1068	-0.0394	-0.1621	-0.0334	
   215	-0.0320	 0.0472	-0.0004	 0.0000	-0.0089	-0.0323	-0.2150	 0.0143	-0.0226	-0.0274	 7.7037	-11.3645	-0.1140	-0.0438	-0.1830	-0.0329	
   216	 0.1180	-0.0074	-0.0004	 0.0000	-0.0281	-0.0040	-0.1733	 0.0133	-0.0098	-0.0462	-0.0004	 0.0000	-0.1212	-0.0483	-0.1902	-0.0374	
   217	 0.1180	-0.0074	-0.0004	 0.0000	-0.0562	-0.0080	-0.2278	 0.0332	-0.0443	-0.0408	-0.0004	 0.0000	-0.1284	-0.0528	-0.1902	-0.0374	
   218	 0.0320	-0.0472	-0.0004	 0.0000	-0.1052	-0.0115	-0.2431	 0.0103	-0.0507	-0.0314	-0.0004	 0.0000	-0.1284	-0.0528	-0.1902	-0.0374	
   219	 0.0320	-0.0472	-0.0004	 0.0000	-0.1460	 0.0034	-0.2912	 0.0207	-0.0507	-0.0314	-0.0004	 0.0000	-0.1284	-0.0528	-0.2038	-0.0324	
   220	 0.0000	-0.0000	-0.0004	 0.0000	-0.1741	-0.0006	-0.3747	 0.0227	-0.1052	-0.0115	-0.0004	 0.0000	-0.1357	-0.0573	-0.2111	-0.0369	
   221	-0.1315	 0.0123	-0.0004	 0.0000	-0.1613	-0.0195	-0.3747	 0.0227	-0.1260	-0.0110	-0.0004	 0.0000	-0.1565	-0.0568	-0.2183	-0.0414	
   222	-0.1315	 0.0123	-0.0004	 0.0000	-0.1333	-0.0155	-0.3330	 0.0217	-0.0988	-0.0209	-0.0004	 0.0000	-0.1774	-0.0563	-0.2255	-0.0459	
   223	-0.1315	 0.0123	-0.0004	 0.0000	-0.1741	-0.0006	-0.3202	 0.0028	-0.0860	-0.0398	-0.0004	 0.0000	-0.1846	-0.0608	-0.2392	-0.0409	
   224	-0.1635	 0.0595	-0.0004	 0.0000	-0.1397	-0.0060	-0.2111	-0.0369	-0.1132	-0.0299	-0.0004	 0.0000	-0.1919	-0.0653	-0.2264	-0.0598	
   225	-0.1315	 0.0123	-0.0004	 0.0000	-0.1741	-0.0006	-0.1983	-0.0558	-0.1132	-0.0299	-0.0004	 0.0000	-0.1991	-0.0697	-0.2400	-0.0548	
   226	-0.1315	 0.0123	-0.0004	 0.0000	-0.1613	-0.0195	-0.2529	-0.0359	-0.1541	-0.0150	-0.0004	 0.0000	-0.2200	-0.0692	-0.2609	-0.0543	
   227	-0.1635	 0.0595	-0.0004	 0.0000	-0.1549	-0.0289	-0.3010	-0.0255	-0.2022	-0.0046	-0.0004	 0.0000	-0.2272	-0.0737	-0.2745	-0.0494	
   228	-0.1315	 0.0123	-0.0004	 0.0000	-0.1358	-0.0572	-0.3010	-0.0255	-0.2022	-0.0046	-0.0004	 0.0000	-0.2481	-0.0732	-0.2954	-0.0489	
   229	 0.0000	-0.0000	-0.0004	 0.0000	-0.1421	-0.0478	-0.3074	-0.0161	-0.2303	-0.0086	-0.0004	 0.0000	-0.2689	-0.0728	-0.3162	-0.0484	
   230	-0.0320	 0.0472	-0.0004	 0.0000	-0.1421	-0.0478	-0.3074	-0.0161	-0.2657	-0.0171	12.2084	-18.0095	-0.2970	-0.0767	-0.3307	-0.0574	
   231	-0.0320	 0.0472	-0.0004	 0.0000	-0.1766	-0.0423	-0.3619	 0.0038	-0.2874	-0.0305	12.2084	-18.0095	-0.3042	-0.0812	-0.3451	-0.0663	
   232	-0.1635	 0.0595	-0.0004	 0.0000	-0.1975	-0.0419	-0.4100	 0.0142	-0.2874	-0.0305	 7.7037	-11.3645	-0.3323	-0.0852	-0.3588	-0.0613	
   233	-0.2815	 0.0669	-0.0004	 0.0000	-0.2882	-0.0444	-0.4798	 0.0112	-0.2810	-0.0399	 7.7037	-11.3645	-0.3532	-0.0847	-0.3660	-0.0658	
   234	-0.2815	 0.0669	-0.0004	 0.0000	-0.3090	-0.0439	-0.5216	 0.0121	-0.2810	-0.0399	-0.0004	 0.0000	-0.3604	-0.0892	-0.3796	-0.0609	
   235	-0.1635	 0.0595	-0.0004	 0.0000	-0.2754	-0.0633	-0.5152	 0.0027	-0.3435	-0.0385	 7.7037	-11.3645	-0.3885	-0.0932	-0.4141	-0.0554	
   236	-0.1635	 0.0595	-0.0004	 0.0000	-0.3026	-0.0533	-0.5152	 0.0027	-0.3716	-0.0425	12.2084	-18.0095	-0.4030	-0.1022	-0.4150	-0.0693	
   237	-0.1635	 0.0595	-0.0004	 0.0000	-0.3026	-0.0533	-0.4606	-0.0172	-0.3716	-0.0425	 7.7037	-11.3645	-0.4238	-0.1017	-0.4222	-0.0738	
   238	-0.1315	 0.0123	-0.0004	 0.0000	-0.3243	-0.0668	-0.4606	-0.0172	-0.3925	-0.0420	 7.7037	-11.3645	-0.4383	-0.1106	-0.4431	-0.0733	
   239	-0.2495	 0.0197	-0.0004	 0.0000	-0.3460	-0.0802	-0.4350	-0.0549	-0.4006	-0.0604	 7.7037	-11.3645	-0.4728	-0.1052	-0.4575	-0.0823	
   240	-0.3811	 0.0321	-0.0004	 0.0000	-0.3805	-0.0748	-0.4350	-0.0549	-0.4278	-0.0505	-0.0004	 0.0000	-0.4736	-0.1191	-0.4575	-0.0823	
   241	-0.2495	 0.0197	-0.0004	 0.0000	-0.3805	-0.0748	-0.4350	-0.0549	-0.4070	-0.0509	-0.0004	 0.0000	-0.4945	-0.1186	-0.4711	-0.0773	
   242	-0.4130	 0.0793	-0.0004	 0.0000	-0.4359	-0.0688	-0.5249	-0.0435	-0.4150	-0.0693	-0.0004	 0.0000	-0.5017	-0.1231	-0.4784	-0.0818	
   243	-0.2495	 0.0197	-0.0004	 0.0000	-0.4359	-0.0688	-0.5249	-0.0435	-0.4006	-0.0604	-0.0004	 0.0000	-0.5017	-0.1231	-0.4711	-0.0773	
   244	-0.2495	 0.0197	-0.0004	 0.0000	-0.4078	-0.0648	-0.4350	-0.0549	-0.4006	-0.0604	-0.0004	 0.0000	-0.4945	-0.1186	-0.4567	-0.0684	
   245	-0.3811	 0.0321	-0.0004	 0.0000	-0.4142	-0.0554	-0.4069	-0.0509	-0.3307	-0.0574	-0.0004	 0.0000	-0.4864	-0.1002	-0.4286	-0.0644	
   246	-0.4130	 0.0793	-0.0004	 0.0000	-0.3652	-0.0519	-0.3299	-0.0434	-0.2954	-0.0489	-0.0004	 0.0000	-0.4375	-0.0967	-0.3796	-0.0609	
   247	-0.4130	 0.0793	-0.0004	 0.0000	-0.3435	-0.0385	-0.3010	-0.0255	-0.2810	-0.0399	-0.0004	 0.0000	-0.4021	-0.0882	-0.3515	-0.0569	
   248	-0.2815	 0.0669	-0.0004	 0.0000	-0.2818	-0.0538	-0.2239	-0.0180	-0.2047	-0.0464	-0.0004	 0.0000	-0.3668	-0.0798	-0.3026	-0.0534	
   249	-0.1635	 0.0595	-0.0004	 0.0000	-0.2601	-0.0404	-0.2367	 0.0009	-0.1831	-0.0329	-0.0004	 0.0000	-0.3179	-0.0763	-0.2745	-0.0494	
   250	-0.1635	 0.0595	-0.0004	 0.0000	-0.2256	-0.0458	-0.2022	-0.0046	-0.1831	-0.0329	-0.0004	 0.0000	-0.3034	-0.0673	-0.2400	-0.0548	
   251	-0.0320	 0.0472	-0.0004	 0.0000	-0.2039	-0.0324	-0.1605	-0.0056	-0.1477	-0.0245	-0.0004	 0.0000	-0.2753	-0.0633	-0.2392	-0.0409	
   252	 0.0860	 0.0398	-0.0004	 0.0000	-0.1613	-0.0195	-0.1188	-0.0065	-0.1541	-0.0150	-0.0004	 0.0000	-0.2408	-0.0688	-0.2183	-0.0414	
   253	 0.0860	 0.0398	-0.0004	 0.0000	-0.1397	-0.0060	-0.1316	 0.0124	-0.0988	-0.0209	-0.0004	 0.0000	-0.2127	-0.0648	-0.1838	-0.0468	
   254	-0.0320	 0.0472	-0.0004	 0.0000	-0.1397	-0.0060	-0.1316	 0.0124	-0.0907	-0.0026	-0.0004	 0.0000	-0.1846	-0.0608	-0.1766	-0.0424	
   255	 0.1180	-0.0074	-0.0004	 0.0000	-0.0988	-0.0209	-0.1316	 0.0124	-0.0698	-0.0030	-0.0004	 0.0000	-0.1638	-0.0613	-0.1766	-0.0424	
   256	 0.0000	-0.0000	-0.0004	 0.0000	-0.1333	-0.0155	-0.1861	 0.0322	-0.0418	 0.0010	-0.0004	 0.0000	-0.1565	-0.0568	-0.1557	-0.0428	
   257	 0.0860	 0.0398	-0.0004	 0.0000	-0.0715	-0.0308	-0.1380	 0.0218	-0.0418	 0.0010	-0.0004	 0.0000	-0.1493	-0.0523	-0.1421	-0.0478	
   258	-0.0320	 0.0472	-0.0004	 0.0000	-0.0988	-0.0209	-0.1316	 0.0124	-0.0418	 0.0010	-0.0004	 0.0000	-0.1357	-0.0573	-0.1421	-0.0478	
   259	 0.0860	 0.0398	-0.0004	 0.0000	-0.0370	-0.0363	-0.0835	 0.0019	-0.0546	 0.0198	-0.0004	 0.0000	-0.1357	-0.0573	-0.1557	-0.0428	
   260	 0.0860	 0.0398	-0.0004	 0.0000	 0.0039	-0.0512	-0.0835	 0.0019	-0.0546	 0.0198	-0.0004	 0.0000	-0.1284	-0.0528	-0.1485	-0.0384	
   261	 0.1180	-0.0074	-0.0004	 0.0000	-0.0089	-0.0323	-0.0963	 0.0208	-0.0337	 0.0193	-0.0004	 0.0000	-0.1148	-0.0578	-0.1349	-0.0433	
   262	 0.0000	-0.0000	-0.0004	 0.0000	-0.0779	-0.0214	-0.1380	 0.0218	 0.0217	 0.0134	-0.0004	 0.0000	-0.1076	-0.0533	-0.1413	-0.0339	
   263	 0.0860	 0.0398	-0.0004	 0.0000	-0.0498	-0.0174	-0.0963	 0.0208	 0.0217	 0.0134	-0.0004	 0.0000	-0.1076	-0.0533	-0.1349	-0.0433	
   264	 0.1180	-0.0074	-0.0004	 0.0000	-0.0498	-0.0174	-0.1380	 0.0218	-0.0000	-0.0000	-0.0004	 0.0000	-0.1076	-0.0533	-0.1349	-0.0433	
   265	 0.2815	-0.0670	-0.0004	 0.0000	-0.0498	-0.0174	-0.1380	 0.0218	-0.0273	 0.0099	-0.0004	 0.0000	-0.0940	-0.0582	-0.1349	-0.0433	
   266	 0.2815	-0.0670	-0.0004	 0.0000	-0.0562	-0.0080	-0.1380	 0.0218	-0.0145	-0.0090	-0.0004	 0.0000	-0.1212	-0.0483	-0.1557	-0.0428	
   267	 0.2495	-0.0198	-0.0004	 0.0000	-0.0281	-0.0040	-0.0963	 0.0208	-0.0017	-0.0279	-0.0004	 0.0000	-0.1148	-0.0578	-0.1694	-0.0379	
   268	 0.2495	-0.0198	-0.0004	 0.0000	-0.0281	-0.0040	-0.0963	 0.0208	-0.0290	-0.0179	-0.0004	 0.0000	-0.1284	-0.0528	-0.1766	-0.0424	
   269	 0.2815	-0.0670	-0.0004	 0.0000	-0.0281	-0.0040	-0.1380	 0.0218	-0.0290	-0.0179	-0.0004	 0.0000	-0.1284	-0.0528	-0.1766	-0.0424	
   270	 0.2815	-0.0670	-0.0004	 0.0000	-0.0562	-0.0080	-0.1861	 0.0322	-0.0290	-0.0179	-0.0004	 0.0000	-0.1357	-0.0573	-0.1838	-0.0468	
   271	 0.4451	-0.1265	-0.0004	 0.0000	-0.0498	-0.0174	-0.1733	 0.0133	-0.0634	-0.0125	-0.0004	 0.0000	-0.1629	-0.0473	-0.1774	-0.0563	
   272	 0.4771	-0.1737	-0.0004	 0.0000	-0.0089	-0.0323	-0.2150	 0.0143	-0.0507	-0.0314	-0.0004	 0.0000	-0.1702	-0.0518	-0.1910	-0.0513	
   273	 0.4451	-0.1265	-0.0004	 0.0000	 0.0256	-0.0378	-0.1605	-0.0056	-0.0779	-0.0214	 7.7037	-11.3645	-0.1838	-0.0469	-0.1910	-0.0513	
   274	 0.4451	-0.1265	-0.0004	 0.0000	 0.0256	-0.0378	-0.1733	 0.0133	-0.0715	-0.0309	 7.7037	-11.3645	-0.1774	-0.0563	-0.2119	-0.0508	
   275	 0.4131	-0.0793	-0.0004	 0.0000	 0.0537	-0.0338	-0.1188	-0.0065	-0.0988	-0.0209	12.2084	-18.0095	-0.1846	-0.0608	-0.2255	-0.0459	
   276	 0.2495	-0.0198	-0.0004	 0.0000	 0.0537	-0.0338	-0.1188	-0.0065	-0.1260	-0.0110	12.2084	-18.0095	-0.1846	-0.0608	-0.2392	-0.0409	
   277	 0.1180	-0.0074	-0.0004	 0.0000	-0.0153	-0.0229	-0.2150	 0.0143	-0.1541	-0.0150	12.2084	-18.0095	-0.1919	-0.0653	-0.2328	-0.0503	
   278	 0.1180	-0.0074	-0.0004	 0.0000	-0.0498	-0.0174	-0.2022	-0.0046	-0.1260	-0.0110	 7.7037	-11.3645	-0.1919	-0.0653	-0.2392	-0.0409	
   279	 0.0000	-0.0000	-0.0004	 0.0000	-0.1052	-0.0115	-0.2784	 0.0018	-0.1622	-0.0334	12.2084	-18.0095	-0.2063	-0.0742	-0.2673	-0.0449	
   280	 0.0000	-0.0000	-0.0004	 0.0000	-0.1397	-0.0060	-0.2656	-0.0170	-0.1831	-0.0329	12.2084	-18.0095	-0.2336	-0.0643	-0.2745	-0.0494	
   281	 0.1180	-0.0074	-0.0004	 0.0000	-0.1397	-0.0060	-0.2239	-0.0180	-0.1703	-0.0518	15.4078	-22.7290	-0.2408	-0.0688	-0.2954	-0.0489	
   282	 0.1180	-0.0074	-0.0004	 0.0000	-0.0988	-0.0209	-0.2367	 0.0009	-0.2111	-0.0369	15.4078	-22.7290	-0.2753	-0.0633	-0.2962	-0.0628	
   283	 0.1500	-0.0546	-0.0004	 0.0000	-0.1333	-0.0155	-0.2239	-0.0180	-0.1703	-0.0518	12.2084	-18.0095	-0.2825	-0.0678	-0.3098	-0.0578	
   284	 0.0000	-0.0000	-0.0004	 0.0000	-0.1549	-0.0289	-0.2656	-0.0170	-0.1703	-0.0518	 7.7037	-11.3645	-0.2898	-0.0723	-0.3098	-0.0578	
   285	 0.0000	-0.0000	-0.0004	 0.0000	-0.1958	-0.0140	-0.3747	 0.0227	-0.1703	-0.0518	-0.0004	 0.0000	-0.3106	-0.0718	-0.3171	-0.0623	
   286	-0.1315	 0.0123	-0.0004	 0.0000	-0.2448	-0.0175	-0.4645	 0.0340	-0.2111	-0.0369	-0.0004	 0.0000	-0.3315	-0.0713	-0.3307	-0.0574	
   287	-0.1635	 0.0595	-0.0004	 0.0000	-0.2448	-0.0175	-0.4100	 0.0142	-0.2810	-0.0399	 7.7037	-11.3645	-0.3596	-0.0753	-0.3451	-0.0663	
   288	-0.3135	 0.1141	-0.0004	 0.0000	-0.2384	-0.0270	-0.4100	 0.0142	-0.3082	-0.0300	 7.7037	-11.3645	-0.3741	-0.0842	-0.3588	-0.0613	
   289	-0.3455	 0.1613	-0.0004	 0.0000	-0.2384	-0.0270	-0.4100	 0.0142	-0.3227	-0.0390	 7.7037	-11.3645	-0.3949	-0.0838	-0.3796	-0.0609	
   290	-0.4450	 0.1264	-0.0004	 0.0000	-0.3074	-0.0161	-0.4389	-0.0037	-0.3435	-0.0385	 7.7037	-11.3645	-0.4094	-0.0927	-0.3941	-0.0698	
   291	-0.4450	 0.1264	-0.0004	 0.0000	-0.3282	-0.0156	-0.4670	-0.0077	-0.3435	-0.0385	-0.0004	 0.0000	-0.4166	-0.0972	-0.4013	-0.0743	
   292	-0.4450	 0.1264	-0.0004	 0.0000	-0.3090	-0.0439	-0.5024	-0.0162	-0.3435	-0.0385	-0.0004	 0.0000	-0.4238	-0.1017	-0.4013	-0.0743	
   293	-0.4450	 0.1264	-0.0004	 0.0000	-0.3435	-0.0385	-0.5441	-0.0152	-0.3716	-0.0425	-0.0004	 0.0000	-0.4383	-0.1106	-0.4222	-0.0738	
   294	-0.4130	 0.0793	-0.0004	 0.0000	-0.3652	-0.0519	-0.5313	-0.0341	-0.3797	-0.0609	-0.0004	 0.0000	-0.4728	-0.1052	-0.4431	-0.0733	
   295	-0.2815	 0.0669	-0.0004	 0.0000	-0.3716	-0.0424	-0.5313	-0.0341	-0.4006	-0.0604	-0.0004	 0.0000	-0.4873	-0.1141	-0.4575	-0.0823	
   296	-0.2815	 0.0669	-0.0004	 0.0000	-0.3716	-0.0424	-0.4896	-0.0351	-0.4495	-0.0639	 7.7037	-11.3645	-0.5017	-0.1231	-0.4784	-0.0818	
   297	-0.2495	 0.0197	-0.0004	 0.0000	-0.3652	-0.0519	-0.5441	-0.0152	-0.4495	-0.0639	 7.7037	-11.3645	-0.5154	-0.1181	-0.4856	-0.0863	
   298	-0.2495	 0.0197	-0.0004	 0.0000	-0.3652	-0.0519	-0.5152	 0.0027	-0.4150	-0.0693	 7.7037	-11.3645	-0.5154	-0.1181	-0.4848	-0.0723	
   299	-0.4130	 0.0793	-0.0004	 0.0000	-0.3997	-0.0464	-0.5216	 0.0121	-0.4006	-0.0604	 7.7037	-11.3645	-0.5009	-0.1092	-0.4431	-0.0733	
   300	-0.2815	 0.0669	-0.0004	 0.0000	-0.3307	-0.0573	-0.4926	 0.0300	-0.3716	-0.0425	 7.7037	-11.3645	-0.4656	-0.1007	-0.4141	-0.0554	
   301	-0.3135	 0.1141	-0.0004	 0.0000	-0.2818	-0.0538	-0.3747	 0.0227	-0.3499	-0.0290	 7.7037	-11.3645	-0.4302	-0.0922	-0.3588	-0.0613	
   302	-0.1955	 0.1067	-0.0004	 0.0000	-0.2256	-0.0458	-0.2976	 0.0301	-0.3002	-0.0116	-0.0004	 0.0000	-0.3813	-0.0887	-0.3234	-0.0529	
   303	-0.0640	 0.0944	-0.0004	 0.0000	-0.1766	-0.0423	-0.1733	 0.0133	-0.2384	-0.0270	-0.0004	 0.0000	-0.3460	-0.0803	-0.2681	-0.0588	
   304	-0.0640	 0.0944	-0.0004	 0.0000	-0.1205	-0.0344	-0.0835	 0.0019	-0.2303	-0.0086	-0.0004	 0.0000	-0.3106	-0.0718	-0.2400	-0.0548	
   305	 0.0540	 0.0870	-0.0004	 0.0000	-0.0651	-0.0403	-0.0545	 0.0199	-0.1750	-0.0145	-0.0004	 0.0000	-0.2825	-0.0678	-0.2328	-0.0503	
   306	-0.0960	 0.1416	-0.0004	 0.0000	-0.0715	-0.0308	-0.0545	 0.0199	-0.1750	-0.0145	-0.0004	 0.0000	-0.2408	-0.0688	-0.2119	-0.0508	
   307	 0.0220	 0.1342	-0.0004	 0.0000	-0.0089	-0.0323	-0.0545	 0.0199	-0.1132	-0.0299	-0.0004	 0.0000	-0.2264	-0.0598	-0.1974	-0.0419	
   308	 0.1855	 0.0746	-0.0004	 0.0000	 0.0256	-0.0378	-0.0128	 0.0189	-0.0988	-0.0209	-0.0004	 0.0000	-0.1983	-0.0558	-0.1902	-0.0374	
   309	 0.1535	 0.1218	-0.0004	 0.0000	 0.0537	-0.0338	 0.0353	 0.0085	-0.0779	-0.0214	-0.0004	 0.0000	-0.1910	-0.0513	-0.1830	-0.0329	
   310	 0.0220	 0.1342	-0.0004	 0.0000	 0.0665	-0.0526	-0.0192	 0.0283	-0.1052	-0.0115	-0.0004	 0.0000	-0.1774	-0.0563	-0.1694	-0.0379	
   311	 0.1855	 0.0746	-0.0004	 0.0000	 0.0665	-0.0526	-0.0865	 0.0670	-0.0907	-0.0026	-0.0004	 0.0000	-0.1702	-0.0518	-0.1557	-0.0428	
   312	 0.0540	 0.0870	-0.0004	 0.0000	 0.0256	-0.0378	-0.1283	 0.0680	-0.0698	-0.0030	-0.0004	 0.0000	-0.1629	-0.0473	-0.1485	-0.0384	
   313	 0.0540	 0.0870	-0.0004	 0.0000	 0.0256	-0.0378	-0.1219	 0.0586	-0.0826	 0.0158	-0.0004	 0.0000	-0.1357	-0.0573	-0.1349	-0.0433	
   314	-0.0640	 0.0944	-0.0004	 0.0000	 0.0256	-0.0378	-0.2181	 0.0794	-0.0954	 0.0347	-0.0004	 0.0000	-0.1284	-0.0528	-0.1349	-0.0433	
   315	-0.1955	 0.1067	-0.0004	 0.0000	-0.0089	-0.0323	-0.1925	 0.0416	-0.0826	 0.0158	-0.0004	 0.0000	-0.1284	-0.0528	-0.1485	-0.0384	
   316	-0.0320	 0.0472	-0.0004	 0.0000	-0.0153	-0.0229	-0.1925	 0.0416	-0.0418	 0.0010	-0.0004	 0.0000	-0.1284	-0.0528	-0.1485	-0.0384	
   317	-0.1955	 0.1067	-0.0004	 0.0000	-0.0153	-0.0229	-0.1380	 0.0218	-0.0145	-0.0090	-0.0004	 0.0000	-0.1212	-0.0483	-0.1485	-0.0384	
   318	-0.3455	 0.1613	-0.0004	 0.0000	 0.0256	-0.0378	-0.1380	 0.0218	 0.0128	-0.0189	-0.0004	 0.0000	-0.1076	-0.0533	-0.1485	-0.0384	
   319	-0.2595	 0.2011	-0.0004	 0.0000	 0.0128	-0.0189	-0.0963	 0.0208	 0.0128	-0.0189	-0.0004	 0.0000	-0.1076	-0.0533	-0.1485	-0.0384	
   320	-0.0960	 0.1416	-0.0004	 0.0000	 0.0064	-0.0094	-0.0963	 0.0208	-0.0000	-0.0000	-0.0004	 0.0000	-0.1004	-0.0488	-0.1349	-0.0433	
   321	-0.0640	 0.0944	-0.0004	 0.0000	 0.0473	-0.0243	-0.1380	 0.0218	-0.0145	-0.0090	-0.0004	 0.0000	-0.1076	-0.0533	-0.1621	-0.0334	
   322	-0.0640	 0.0944	-0.0004	 0.0000	 0.0473	-0.0243	-0.1316	 0.0124	-0.0826	 0.0158	-0.0004	 0.0000	-0.1212	-0.0483	-0.1557	-0.0428	
   323	 0.0540	 0.0870	-0.0004	 0.0000	 0.0553	-0.0059	-0.0835	 0.0019	-0.0698	-0.0030	 7.7037	-11.3645	-0.1284	-0.0528	-0.1830	-0.0329	
   324	 0.0540	 0.0870	-0.0004	 0.0000	 0.0553	-0.0059	-0.0835	 0.0019	-0.0418	 0.0010	-0.0004	 0.0000	-0.1284	-0.0528	-0.1766	-0.0424	
   325	-0.0640	 0.0944	-0.0004	 0.0000	 0.0553	-0.0059	-0.1380	 0.0218	-0.0698	-0.0030	-0.0004	 0.0000	-0.1284	-0.0528	-0.1902	-0.0374	
   326	-0.1955	 0.1067	-0.0004	 0.0000	 0.0064	-0.0094	-0.2406	 0.0520	-0.0698	-0.0030	-0.0004	 0.0000	-0.1421	-0.0478	-0.1774	-0.0563	
   327	 0.0000	-0.0000	-0.0004	 0.0000	 0.0064	-0.0094	-0.2687	 0.0481	-0.0907	-0.0026	-0.0004	 0.0000	-0.1629	-0.0473	-0.1774	-0.0563	
   328	-0.0320	 0.0472	-0.0004	 0.0000	 0.0409	-0.0149	-0.2278	 0.0332	-0.0779	-0.0214	-0.0004	 0.0000	-0.1565	-0.0568	-0.1910	-0.0513	
   329	-0.0320	 0.0472	-0.0004	 0.0000	 0.0064	-0.0094	-0.2150	 0.0143	-0.0988	-0.0209	-0.0004	 0.0000	-0.1638	-0.0613	-0.2047	-0.0463	
   330	-0.0640	 0.0944	-0.0004	 0.0000	 0.0473	-0.0243	-0.1605	-0.0056	-0.0988	-0.0209	 7.7037	-11.3645	-0.1774	-0.0563	-0.2119	-0.0508	
   331	 0.0540	 0.0870	-0.0004	 0.0000	 0.0473	-0.0243	-0.1733	 0.0133	-0.0860	-0.0398	 7.7037	-11.3645	-0.1846	-0.0608	-0.2328	-0.0503	
   332	-0.2275	 0.1539	-0.0004	 0.0000	 0.0128	-0.0189	-0.2559	 0.0292	-0.0860	-0.0398	 7.7037	-11.3645	-0.1919	-0.0653	-0.2264	-0.0598	
   333	-0.3455	 0.1613	-0.0004	 0.0000	-0.0153	-0.0229	-0.2559	 0.0292	-0.1068	-0.0393	 7.7037	-11.3645	-0.2127	-0.0648	-0.2336	-0.0643	
   334	-0.5090	 0.2208	-0.0004	 0.0000	-0.0907	-0.0025	-0.3458	 0.0406	-0.1349	-0.0433	12.2084	-18.0095	-0.2264	-0.0598	-0.2609	-0.0543	
   335	-0.2275	 0.1539	-0.0004	 0.0000	-0.0907	-0.0025	-0.3458	 0.0406	-0.1831	-0.0329	12.2084	-18.0095	-0.2472	-0.0593	-0.2681	-0.0588	
   336	-0.1955	 0.1067	-0.0004	 0.0000	-0.0779	-0.0214	-0.3875	 0.0415	-0.2111	-0.0369	15.4078	-22.7290	-0.2545	-0.0638	-0.2681	-0.0588	
   337	-0.3455	 0.1613	-0.0004	 0.0000	-0.0779	-0.0214	-0.3747	 0.0227	-0.2465	-0.0454	19.9125	-29.3740	-0.2825	-0.0678	-0.2962	-0.0628	
   338	-0.1955	 0.1067	-0.0004	 0.0000	-0.0370	-0.0363	-0.3330	 0.0217	-0.2874	-0.0305	19.9125	-29.3740	-0.2834	-0.0817	-0.3234	-0.0529	
   339	-0.1955	 0.1067	-0.0004	 0.0000	-0.0715	-0.0308	-0.3202	 0.0028	-0.3002	-0.0116	15.4078	-22.7290	-0.3106	-0.0718	-0.3307	-0.0574	
   340	-0.4130	 0.0793	-0.0004	 0.0000	-0.1333	-0.0155	-0.4100	 0.0142	-0.2874	-0.0305	15.4078	-22.7290	-0.3115	-0.0857	-0.3515	-0.0569	
   341	-0.4130	 0.0793	-0.0004	 0.0000	-0.1613	-0.0195	-0.4645	 0.0340	-0.3082	-0.0300	12.2084	-18.0095	-0.3323	-0.0852	-0.3588	-0.0613	
   342	-0.4130	 0.0793	-0.0004	 0.0000	-0.2231	-0.0041	-0.4798	 0.0112	-0.3227	-0.0390	12.2084	-18.0095	-0.3532	-0.0847	-0.3796	-0.0609	
   343	-0.2815	 0.0669	-0.0004	 0.0000	-0.2103	-0.0230	-0.4798	 0.0112	-0.3227	-0.0390	-0.0004	 0.0000	-0.3604	-0.0892	-0.3869	-0.0653	
   344	-0.2815	 0.0669	-0.0004	 0.0000	-0.2448	-0.0175	-0.5344	 0.0310	-0.3435	-0.0385	 7.7037	-11.3645	-0.3749	-0.0982	-0.4077	-0.0648	
   345	-0.2815	 0.0669	-0.0004	 0.0000	-0.2793	-0.0121	-0.5216	 0.0121	-0.3435	-0.0385	-0.0004	 0.0000	-0.3957	-0.0977	-0.4013	-0.0743	
   346	-0.1315	 0.0123	-0.0004	 0.0000	-0.2793	-0.0121	-0.5216	 0.0121	-0.3716	-0.0425	 7.7037	-11.3645	-0.4166	-0.0972	-0.4358	-0.0688	
   347	-0.2815	 0.0669	-0.0004	 0.0000	-0.3010	-0.0255	-0.5216	 0.0121	-0.3716	-0.0425	-0.0004	 0.0000	-0.4311	-0.1061	-0.4431	-0.0733	
   348	-0.4130	 0.0793	-0.0004	 0.0000	-0.3090	-0.0439	-0.5152	 0.0027	-0.3925	-0.0420	-0.0004	 0.0000	-0.4519	-0.1057	-0.4503	-0.0778	
   349	-0.4130	 0.0793	-0.0004	 0.0000	-0.3716	-0.0424	-0.5986	 0.0046	-0.3797	-0.0609	-0.0004	 0.0000	-0.4728	-0.1052	-0.4639	-0.0728	
   350	-0.2815	 0.0669	-0.0004	 0.0000	-0.3716	-0.0424	-0.5986	 0.0046	-0.4278	-0.0505	-0.0004	 0.0000	-0.4873	-0.1141	-0.4848	-0.0723	
   351	-0.4450	 0.1264	-0.0004	 0.0000	-0.4061	-0.0370	-0.5986	 0.0046	-0.4640	-0.0728	 7.7037	-11.3645	-0.5218	-0.1087	-0.4992	-0.0813	
   352	-0.2815	 0.0669	-0.0004	 0.0000	-0.3716	-0.0424	-0.5569	 0.0037	-0.4912	-0.0629	 7.7037	-11.3645	-0.5426	-0.1082	-0.4928	-0.0907	
   353	-0.2815	 0.0669	-0.0004	 0.0000	-0.3716	-0.0424	-0.5152	 0.0027	-0.4559	-0.0544	-0.0004	 0.0000	-0.5154	-0.1181	-0.4784	-0.0818	
   354	-0.4130	 0.0793	-0.0004	 0.0000	-0.4125	-0.0276	-0.5152	 0.0027	-0.4070	-0.0509	-0.0004	 0.0000	-0.5009	-0.1092	-0.4503	-0.0778	
   355	-0.4450	 0.1264	-0.0004	 0.0000	-0.3435	-0.0385	-0.4389	-0.0037	-0.3925	-0.0420	-0.0004	 0.0000	-0.4728	-0.1052	-0.3949	-0.0837	
   356	-0.3135	 0.1141	-0.0004	 0.0000	-0.2882	-0.0444	-0.4100	 0.0142	-0.3227	-0.0390	-0.0004	 0.0000	-0.4375	-0.0967	-0.3596	-0.0753	
   357	-0.3135	 0.1141	-0.0004	 0.0000	-0.2473	-0.0593	-0.3619	 0.0038	-0.2874	-0.0305	-0.0004	 0.0000	-0.4021	-0.0882	-0.3243	-0.0668	
   358	-0.1635	 0.0595	-0.0004	 0.0000	-0.1975	-0.0419	-0.2912	 0.0207	-0.2874	-0.0305	-0.0004	 0.0000	-0.3668	-0.0798	-0.3034	-0.0673	
   359	-0.1635	 0.0595	-0.0004	 0.0000	-0.1702	-0.0518	-0.2976	 0.0301	-0.2593	-0.0265	-0.0004	 0.0000	-0.3460	-0.0803	-0.2826	-0.0678	
   360	-0.1635	 0.0595	-0.0004	 0.0000	-0.1421	-0.0478	-0.2150	 0.0143	-0.2239	-0.0180	-0.0004	 0.0000	-0.3179	-0.0763	-0.2681	-0.0588	
   361	 0.0000	-0.0000	-0.0004	 0.0000	-0.1141	-0.0438	-0.2278	 0.0332	-0.2239	-0.0180	-0.0004	 0.0000	-0.2970	-0.0767	-0.2681	-0.0588	
   362	-0.2815	 0.0669	-0.0004	 0.0000	-0.1421	-0.0478	-0.3104	 0.0490	-0.1831	-0.0329	-0.0004	 0.0000	-0.2825	-0.0678	-0.2609	-0.0543	
   363	-0.2815	 0.0669	-0.0004	 0.0000	-0.1549	-0.0289	-0.3104	 0.0490	-0.1622	-0.0334	-0.0004	 0.0000	-0.2617	-0.0683	-0.2472	-0.0593	
   364	-0.1635	 0.0595	-0.0004	 0.0000	-0.1141	-0.0438	-0.3104	 0.0490	-0.1622	-0.0334	-0.0004	 0.0000	-0.2408	-0.0688	-0.2609	-0.0543	
   365	-0.4450	 0.1264	-0.0004	 0.0000	-0.1549	-0.0289	-0.3522	 0.0500	-0.1895	-0.0235	 7.7037	-11.3645	-0.2408	-0.0688	-0.2609	-0.0543	
   366	-0.3135	 0.1141	-0.0004	 0.0000	-0.0924	-0.0304	-0.2559	 0.0292	-0.1895	-0.0235	 7.7037	-11.3645	-0.2336	-0.0643	-0.2609	-0.0543	
   367	-0.3135	 0.1141	-0.0004	 0.0000	-0.0924	-0.0304	-0.2687	 0.0481	-0.2022	-0.0046	 7.7037	-11.3645	-0.2336	-0.0643	-0.2609	-0.0543	
   368	-0.3135	 0.1141	-0.0004	 0.0000	-0.1333	-0.0155	-0.2559	 0.0292	-0.1814	-0.0051	-0.0004	 0.0000	-0.2264	-0.0598	-0.2609	-0.0543	
   369	-0.3135	 0.1141	-0.0004	 0.0000	-0.1397	-0.0060	-0.2559	 0.0292	-0.1814	-0.0051	 7.7037	-11.3645	-0.2264	-0.0598	-0.2609	-0.0543	
   370	-0.1955	 0.1067	-0.0004	 0.0000	-0.1333	-0.0155	-0.2559	 0.0292	-0.1260	-0.0110	-0.0004	 0.0000	-0.2055	-0.0603	-0.2400	-0.0548	
   371	-0.1955	 0.1067	-0.0004	 0.0000	-0.0924	-0.0304	-0.2559	 0.0292	-0.1541	-0.0150	 7.7037	-11.3645	-0.2055	-0.0603	-0.2400	-0.0548	
   372	-0.0320	 0.0472	-0.0004	 0.0000	-0.0924	-0.0304	-0.2559	 0.0292	-0.1541	-0.0150	 7.7037	-11.3645	-0.1919	-0.0653	-0.2264	-0.0598	
   373	-0.0320	 0.0472	-0.0004	 0.0000	-0.0988	-0.0209	-0.3104	 0.0490	-0.1750	-0.0145	15.4078	-22.7290	-0.1919	-0.0653	-0.2536	-0.0499	
   374	-0.1955	 0.1067	-0.0004	 0.0000	-0.0715	-0.0308	-0.3104	 0.0490	-0.1750	-0.0145	15.4078	-22.7290	-0.1919	-0.0653	-0.2472	-0.0593	
   375	-0.1635	 0.0595	-0.0004	 0.0000	-0.0370	-0.0363	-0.3104	 0.0490	-0.1814	-0.0051	12.2084	-18.0095	-0.1919	-0.0653	-0.2609	-0.0543	
   376	-0.3135	 0.1141	-0.0004	 0.0000	-0.0779	-0.0214	-0.3522	 0.0500	-0.1814	-0.0051	12.2084	-18.0095	-0.1919	-0.0653	-0.2745	-0.0494	
   377	-0.3455	 0.1613	-0.0004	 0.0000	-0.0715	-0.0308	-0.3522	 0.0500	-0.1132	-0.0299	 7.7037	-11.3645	-0.1919	-0.0653	-0.2745	-0.0494	
   378	-0.3455	 0.1613	-0.0004	 0.0000	-0.0924	-0.0304	-0.3330	 0.0217	-0.1541	-0.0150	-0.0004	 0.0000	-0.1991	-0.0697	-0.2681	-0.0588	
   379	-0.3455	 0.1613	-0.0004	 0.0000	-0.0924	-0.0304	-0.3747	 0.0227	-0.1477	-0.0245	-0.0004	 0.0000	-0.2063	-0.0742	-0.2689	-0.0727	
   380	-0.2275	 0.1539	-0.0004	 0.0000	-0.0988	-0.0209	-0.3202	 0.0028	-0.1349	-0.0433	 7.7037	-11.3645	-0.2200	-0.0692	-0.2826	-0.0678	
   381	-0.0640	 0.0944	-0.0004	 0.0000	-0.1333	-0.0155	-0.3747	 0.0227	-0.1558	-0.0428	12.2084	-18.0095	-0.2408	-0.0688	-0.3107	-0.0718	
   382	-0.1955	 0.1067	-0.0004	 0.0000	-0.1141	-0.0438	-0.3619	 0.0038	-0.1703	-0.0518	12.2084	-18.0095	-0.2617	-0.0683	-0.3043	-0.0812	
   383	-0.2815	 0.0669	-0.0004	 0.0000	-0.1830	-0.0329	-0.4645	 0.0340	-0.2111	-0.0369	12.2084	-18.0095	-0.2689	-0.0728	-0.3315	-0.0713	
   384	-0.4130	 0.0793	-0.0004	 0.0000	-0.2039	-0.0324	-0.4645	 0.0340	-0.2111	-0.0369	 7.7037	-11.3645	-0.2825	-0.0678	-0.3315	-0.0713	
   385	-0.4130	 0.0793	-0.0004	 0.0000	-0.1847	-0.0607	-0.5344	 0.0310	-0.2384	-0.0270	-0.0004	 0.0000	-0.2898	-0.0723	-0.3451	-0.0663	
   386	-0.5310	 0.0866	-0.0004	 0.0000	-0.2601	-0.0404	-0.5889	 0.0509	-0.3066	-0.0022	 7.7037	-11.3645	-0.2834	-0.0817	-0.3524	-0.0708	
   387	-0.5310	 0.0866	-0.0004	 0.0000	-0.2601	-0.0404	-0.5761	 0.0320	-0.3274	-0.0017	 7.7037	-11.3645	-0.2970	-0.0767	-0.3660	-0.0658	
   388	-0.4130	 0.0793	-0.0004	 0.0000	-0.2192	-0.0553	-0.5216	 0.0121	-0.3146	-0.0206	12.2084	-18.0095	-0.3179	-0.0763	-0.3869	-0.0653	
   389	-0.4450	 0.1264	-0.0004	 0.0000	-0.2256	-0.0458	-0.5344	 0.0310	-0.3355	-0.0201	12.2084	-18.0095	-0.3387	-0.0758	-0.4077	-0.0648	
   390	-0.5630	 0.1338	-0.0004	 0.0000	-0.2601	-0.0404	-0.5216	 0.0121	-0.3082	-0.0300	 7.7037	-11.3645	-0.3460	-0.0803	-0.4013	-0.0743	
   391	-0.7265	 0.1934	-0.0004	 0.0000	-0.2882	-0.0444	-0.5697	 0.0225	-0.2954	-0.0489	 7.7037	-11.3645	-0.3532	-0.0847	-0.4086	-0.0788	
   392	-0.7265	 0.1934	-0.0004	 0.0000	-0.3026	-0.0533	-0.6114	 0.0235	-0.2954	-0.0489	 7.7037	-11.3645	-0.3741	-0.0842	-0.4222	-0.0738	
   393	-0.7265	 0.1934	-0.0004	 0.0000	-0.3243	-0.0668	-0.6940	 0.0394	-0.3435	-0.0385	 7.7037	-11.3645	-0.3749	-0.0982	-0.4294	-0.0783	
   394	-0.5950	 0.1810	-0.0004	 0.0000	-0.3243	-0.0668	-0.6940	 0.0394	-0.3716	-0.0425	 7.7037	-11.3645	-0.4094	-0.0927	-0.4367	-0.0828	
   395	-0.7265	 0.1934	-0.0004	 0.0000	-0.3588	-0.0613	-0.6812	 0.0205	-0.3925	-0.0420	 7.7037	-11.3645	-0.4238	-0.1017	-0.4711	-0.0773	
   396	-0.7265	 0.1934	-0.0004	 0.0000	-0.3460	-0.0802	-0.6748	 0.0110	-0.4198	-0.0321	-0.0004	 0.0000	-0.4383	-0.1106	-0.4784	-0.0818	
   397	-0.8445	 0.2008	-0.0004	 0.0000	-0.3805	-0.0748	-0.6620	-0.0078	-0.4342	-0.0410	-0.0004	 0.0000	-0.4592	-0.1101	-0.5201	-0.0808	
   398	-0.8125	 0.1536	-0.0004	 0.0000	-0.3950	-0.0837	-0.6492	-0.0267	-0.4278	-0.0505	 7.7037	-11.3645	-0.4873	-0.1141	-0.5273	-0.0853	
   399	-0.8445	 0.2008	-0.0004	 0.0000	-0.4231	-0.0877	-0.6973	-0.0163	-0.4559	-0.0544	-0.0004	 0.0000	-0.5145	-0.1042	-0.5346	-0.0898	
   400	-0.8445	 0.2008	-0.0004	 0.0000	-0.4921	-0.0768	-0.7391	-0.0153	-0.4640	-0.0728	-0.0004	 0.0000	-0.5290	-0.1132	-0.5691	-0.0843	
   401	-0.7265	 0.1934	-0.0004	 0.0000	-0.4921	-0.0768	-0.7391	-0.0153	-0.5321	-0.0480	 7.7037	-11.3645	-0.5434	-0.1221	-0.5563	-0.1032	
   402	-0.8445	 0.2008	-0.0004	 0.0000	-0.4921	-0.0768	-0.6845	-0.0352	-0.5530	-0.0475	12.2084	-18.0095	-0.5779	-0.1167	-0.5771	-0.1027	
   403	-0.7265	 0.1934	-0.0004	 0.0000	-0.5065	-0.0858	-0.7263	-0.0342	-0.5675	-0.0565	12.2084	-18.0095	-0.5924	-0.1256	-0.5916	-0.1117	
   404	-0.6945	 0.1462	-0.0004	 0.0000	-0.5282	-0.0992	-0.7680	-0.0332	-0.5883	-0.0560	12.2084	-18.0095	-0.6205	-0.1296	-0.5988	-0.1161	
   405	-0.8125	 0.1536	-0.0004	 0.0000	-0.5282	-0.0992	-0.8025	-0.0278	-0.5883	-0.0560	 7.7037	-11.3645	-0.6205	-0.1296	-0.5988	-0.1161	
   406	-0.9304	 0.1610	-0.0004	 0.0000	-0.5772	-0.1027	-0.8442	-0.0268	-0.5883	-0.0560	 7.7037	-11.3645	-0.6205	-0.1296	-0.5916	-0.1117	
   407	-0.7805	 0.1064	-0.0004	 0.0000	-0.5563	-0.1032	-0.7897	-0.0467	-0.5530	-0.0475	-0.0004	 0.0000	-0.5996	-0.1301	-0.5635	-0.1077	
   408	-0.7485	 0.0592	-0.0004	 0.0000	-0.5154	-0.1181	-0.7680	-0.0332	-0.5530	-0.0475	 7.7037	-11.3645	-0.5852	-0.1211	-0.5426	-0.1082	
   409	-0.7805	 0.1064	-0.0004	 0.0000	-0.4665	-0.1146	-0.6973	-0.0163	-0.4768	-0.0540	 7.7037	-11.3645	-0.5635	-0.1077	-0.5209	-0.0947	
   410	-0.6945	 0.1462	-0.0004	 0.0000	-0.4512	-0.0917	-0.6339	-0.0038	-0.4687	-0.0356	12.2084	-18.0095	-0.5145	-0.1042	-0.4792	-0.0957	
   411	-0.6945	 0.1462	-0.0004	 0.0000	-0.3886	-0.0931	-0.5986	 0.0046	-0.4198	-0.0321	 7.7037	-11.3645	-0.4792	-0.0957	-0.4647	-0.0867	
   412	-0.8445	 0.2008	-0.0004	 0.0000	-0.3950	-0.0837	-0.6114	 0.0235	-0.3989	-0.0325	 7.7037	-11.3645	-0.4511	-0.0917	-0.4439	-0.0872	
   413	-0.6945	 0.1462	-0.0004	 0.0000	-0.4078	-0.0648	-0.6242	 0.0424	-0.3499	-0.0290	-0.0004	 0.0000	-0.4230	-0.0878	-0.4222	-0.0738	
   414	-0.7265	 0.1934	-0.0004	 0.0000	-0.4142	-0.0554	-0.5761	 0.0320	-0.3355	-0.0201	-0.0004	 0.0000	-0.4021	-0.0882	-0.4013	-0.0743	
   415	-0.6270	 0.2282	-0.0004	 0.0000	-0.3652	-0.0519	-0.5344	 0.0310	-0.3499	-0.0290	 7.7037	-11.3645	-0.3813	-0.0887	-0.4013	-0.0743	
   416	-0.4770	 0.1736	-0.0004	 0.0000	-0.3652	-0.0519	-0.4798	 0.0112	-0.3227	-0.0390	 7.7037	-11.3645	-0.3741	-0.0842	-0.4013	-0.0743	
   417	-0.4770	 0.1736	-0.0004	 0.0000	-0.3652	-0.0519	-0.4798	 0.0112	-0.3082	-0.0300	 7.7037	-11.3645	-0.3604	-0.0892	-0.4013	-0.0743	
   418	-0.4770	 0.1736	-0.0004	 0.0000	-0.3997	-0.0464	-0.4798	 0.0112	-0.3146	-0.0206	 7.7037	-11.3645	-0.3604	-0.0892	-0.4013	-0.0743	
   419	-0.5950	 0.1810	-0.0004	 0.0000	-0.3588	-0.0613	-0.5216	 0.0121	-0.3547	 0.0082	12.2084	-18.0095	-0.3668	-0.0798	-0.4222	-0.0738	
   420	-0.7265	 0.1934	-0.0004	 0.0000	-0.3869	-0.0653	-0.5697	 0.0225	-0.3066	-0.0022	 7.7037	-11.3645	-0.3532	-0.0847	-0.3949	-0.0837	
   421	-0.7585	 0.2406	-0.0004	 0.0000	-0.3869	-0.0653	-0.5697	 0.0225	-0.3066	-0.0022	 7.7037	-11.3645	-0.3396	-0.0897	-0.3949	-0.0837	
   422	-0.7585	 0.2406	-0.0004	 0.0000	-0.3460	-0.0802	-0.5569	 0.0037	-0.3194	 0.0167	 7.7037	-11.3645	-0.3460	-0.0803	-0.4013	-0.0743	
   423	-0.7905	 0.2878	-0.0004	 0.0000	-0.3460	-0.0802	-0.5569	 0.0037	-0.2785	 0.0018	 7.7037	-11.3645	-0.3323	-0.0852	-0.3877	-0.0793	
   424	-0.6590	 0.2754	-0.0004	 0.0000	-0.3179	-0.0762	-0.4606	-0.0172	-0.2785	 0.0018	 7.7037	-11.3645	-0.3323	-0.0852	-0.3941	-0.0698	
   425	-0.6590	 0.2754	-0.0004	 0.0000	-0.3179	-0.0762	-0.4670	-0.0077	-0.2849	 0.0112	 7.7037	-11.3645	-0.3187	-0.0902	-0.3941	-0.0698	
   426	-0.6590	 0.2754	-0.0004	 0.0000	-0.3243	-0.0668	-0.5152	 0.0027	-0.2657	-0.0171	12.2084	-18.0095	-0.3187	-0.0902	-0.4013	-0.0743	
   427	-0.6270	 0.2282	-0.0004	 0.0000	-0.4061	-0.0370	-0.5024	-0.0162	-0.2657	-0.0171	12.2084	-18.0095	-0.3187	-0.0902	-0.4013	-0.0743	
   428	-0.6270	 0.2282	-0.0004	 0.0000	-0.4334	-0.0271	-0.5569	 0.0037	-0.2512	-0.0081	 7.7037	-11.3645	-0.3051	-0.0951	-0.4013	-0.0743	
   429	-0.6270	 0.2282	-0.0004	 0.0000	-0.4334	-0.0271	-0.5986	 0.0046	-0.2785	 0.0018	 7.7037	-11.3645	-0.3051	-0.0951	-0.4013	-0.0743	
   430	-0.6590	 0.2754	-0.0004	 0.0000	-0.4270	-0.0365	-0.5858	-0.0142	-0.2785	 0.0018	 7.7037	-11.3645	-0.3323	-0.0852	-0.4222	-0.0738	
   431	-0.6270	 0.2282	-0.0004	 0.0000	-0.3997	-0.0464	-0.5858	-0.0142	-0.3066	-0.0022	12.2084	-18.0095	-0.3259	-0.0947	-0.4495	-0.0639	
   432	-0.7905	 0.2878	-0.0004	 0.0000	-0.3869	-0.0653	-0.6403	 0.0056	-0.3066	-0.0022	12.2084	-18.0095	-0.3532	-0.0847	-0.4431	-0.0733	
   433	-0.7585	 0.2406	-0.0004	 0.0000	-0.3869	-0.0653	-0.6403	 0.0056	-0.3338	 0.0077	12.2084	-18.0095	-0.3668	-0.0798	-0.4639	-0.0728	
   434	-0.7265	 0.1934	-0.0004	 0.0000	-0.3805	-0.0748	-0.6812	 0.0205	-0.3547	 0.0082	12.2084	-18.0095	-0.3604	-0.0892	-0.4575	-0.0823	
   435	-0.7265	 0.1934	-0.0004	 0.0000	-0.3950	-0.0837	-0.6748	 0.0110	-0.3691	-0.0007	12.2084	-18.0095	-0.3677	-0.0937	-0.4711	-0.0773	
   436	-0.7265	 0.1934	-0.0004	 0.0000	-0.3886	-0.0931	-0.7293	 0.0309	-0.4100	 0.0142	15.4078	-22.7290	-0.3677	-0.0937	-0.4848	-0.0723	
   437	-0.7265	 0.1934	-0.0004	 0.0000	-0.3886	-0.0931	-0.7711	 0.0319	-0.4036	 0.0047	15.4078	-22.7290	-0.3749	-0.0982	-0.4848	-0.0723	
   438	-0.5950	 0.1810	-0.0004	 0.0000	-0.3886	-0.0931	-0.6620	-0.0078	-0.3908	-0.0142	15.4078	-22.7290	-0.3957	-0.0977	-0.4920	-0.0768	
   439	-0.5950	 0.1810	-0.0004	 0.0000	-0.4295	-0.0783	-0.7165	 0.0120	-0.4181	-0.0042	15.4078	-22.7290	-0.4094	-0.0927	-0.5193	-0.0669	
   440	-0.5950	 0.1810	-0.0004	 0.0000	-0.4704	-0.0634	-0.7037	-0.0069	-0.4181	-0.0042	15.4078	-22.7290	-0.4166	-0.0972	-0.5265	-0.0714	
   441	-0.8445	 0.2008	-0.0004	 0.0000	-0.5193	-0.0669	-0.7519	 0.0036	-0.4117	-0.0137	15.4078	-22.7290	-0.4302	-0.0922	-0.5337	-0.0759	
   442	-0.8125	 0.1536	-0.0004	 0.0000	-0.5538	-0.0614	-0.7936	 0.0045	-0.3989	-0.0325	12.2084	-18.0095	-0.4375	-0.0967	-0.5273	-0.0853	
   443	-0.6626	 0.0990	-0.0004	 0.0000	-0.5883	-0.0560	-0.8217	 0.0005	-0.4117	-0.0137	 7.7037	-11.3645	-0.4447	-0.1012	-0.5273	-0.0853	
   444	-0.6945	 0.1462	-0.0004	 0.0000	-0.5474	-0.0709	-0.7808	-0.0144	-0.4117	-0.0137	-0.0004	 0.0000	-0.4519	-0.1057	-0.5273	-0.0853	
   445	-0.6945	 0.1462	-0.0004	 0.0000	-0.5883	-0.0560	-0.8089	-0.0183	-0.4198	-0.0321	 7.7037	-11.3645	-0.4864	-0.1002	-0.5418	-0.0942	
   446	-0.6626	 0.0990	-0.0004	 0.0000	-0.5755	-0.0749	-0.8089	-0.0183	-0.4070	-0.0509	12.2084	-18.0095	-0.4937	-0.1047	-0.5627	-0.0938	
   447	-0.6626	 0.0990	-0.0004	 0.0000	-0.5691	-0.0843	-0.8025	-0.0278	-0.4070	-0.0509	15.4078	-22.7290	-0.5145	-0.1042	-0.5699	-0.0982	
   448	-0.7805	 0.1064	-0.0004	 0.0000	-0.5836	-0.0933	-0.8442	-0.0268	-0.4198	-0.0321	 7.7037	-11.3645	-0.5218	-0.1087	-0.5699	-0.0982	
   449	-0.6626	 0.0990	-0.0004	 0.0000	-0.5836	-0.0933	-0.8025	-0.0278	-0.4342	-0.0410	 7.7037	-11.3645	-0.5426	-0.1082	-0.5835	-0.0933	
   450	-0.6626	 0.0990	-0.0004	 0.0000	-0.6181	-0.0878	-0.8987	-0.0070	-0.4278	-0.0505	-0.0004	 0.0000	-0.5498	-0.1127	-0.5771	-0.1027	
   451	-0.8125	 0.1536	-0.0004	 0.0000	-0.6806	-0.0864	-0.9405	-0.0060	-0.4687	-0.0356	-0.0004	 0.0000	-0.5643	-0.1216	-0.5980	-0.1022	
   452	-0.8125	 0.1536	-0.0004	 0.0000	-0.7079	-0.0764	-0.9749	-0.0006	-0.5449	-0.0292	 7.7037	-11.3645	-0.5924	-0.1256	-0.6124	-0.1112	
   453	-0.8125	 0.1536	-0.0004	 0.0000	-0.7015	-0.0859	-1.0167	 0.0004	-0.5594	-0.0381	 7.7037	-11.3645	-0.6133	-0.1251	-0.6333	-0.1107	
   454	-0.9624	 0.2082	-0.0004	 0.0000	-0.7360	-0.0804	-1.0039	-0.0185	-0.5594	-0.0381	 7.7037	-11.3645	-0.6341	-0.1246	-0.6469	-0.1057	
   455	-0.8125	 0.1536	-0.0004	 0.0000	-0.7015	-0.0859	-0.9341	-0.0154	-0.5449	-0.0292	-0.0004	 0.0000	-0.6205	-0.1296	-0.6333	-0.1107	
   456	-0.9624	 0.2082	-0.0004	 0.0000	-0.7015	-0.0859	-0.8859	-0.0258	-0.4960	-0.0256	-0.0004	 0.0000	-0.5996	-0.1301	-0.6124	-0.1112	
   457	-0.9624	 0.2082	-0.0004	 0.0000	-0.6951	-0.0953	-0.8987	-0.0070	-0.4470	-0.0221	-0.0004	 0.0000	-0.5852	-0.1211	-0.5771	-0.1027	
   458	-0.8445	 0.2008	-0.0004	 0.0000	-0.6743	-0.0958	-0.8089	-0.0183	-0.4262	-0.0226	 7.7037	-11.3645	-0.5635	-0.1077	-0.5490	-0.0987	
   459	-0.9944	 0.2553	-0.0004	 0.0000	-0.6806	-0.0864	-0.7808	-0.0144	-0.3908	-0.0142	 7.7037	-11.3645	-0.5145	-0.1042	-0.5065	-0.0858	
   460	-0.8445	 0.2008	-0.0004	 0.0000	-0.6181	-0.0878	-0.6973	-0.0163	-0.3691	-0.0007	 7.7037	-11.3645	-0.4928	-0.0908	-0.4784	-0.0818	
   461	-0.5950	 0.1810	-0.0004	 0.0000	-0.5474	-0.0709	-0.5858	-0.0142	-0.3611	 0.0177	 7.7037	-11.3645	-0.4511	-0.0917	-0.4575	-0.0823	
   462	-0.4450	 0.1264	-0.0004	 0.0000	-0.5193	-0.0669	-0.5569	 0.0037	-0.3466	 0.0266	12.2084	-18.0095	-0.4230	-0.0878	-0.4367	-0.0828	
   463	-0.4450	 0.1264	-0.0004	 0.0000	-0.5385	-0.0386	-0.5152	 0.0027	-0.3258	 0.0261	12.2084	-18.0095	-0.3949	-0.0838	-0.4158	-0.0832	
   464	-0.4130	 0.0793	-0.0004	 0.0000	-0.5321	-0.0480	-0.5761	 0.0320	-0.2704	 0.0202	12.2084	-18.0095	-0.3805	-0.0748	-0.3949	-0.0837	
   465	-0.1315	 0.0123	-0.0004	 0.0000	-0.4768	-0.0539	-0.5216	 0.0121	-0.2768	 0.0296	12.2084	-18.0095	-0.3596	-0.0753	-0.4013	-0.0743	
   466	-0.2815	 0.0669	-0.0004	 0.0000	-0.5177	-0.0391	-0.5152	 0.0027	-0.2214	 0.0237	 7.7037	-11.3645	-0.3387	-0.0758	-0.3732	-0.0703	
   467	-0.2815	 0.0669	-0.0004	 0.0000	-0.4896	-0.0351	-0.5152	 0.0027	-0.1942	 0.0138	 7.7037	-11.3645	-0.3179	-0.0763	-0.3732	-0.0703	
   468	-0.1635	 0.0595	-0.0004	 0.0000	-0.4896	-0.0351	-0.5152	 0.0027	-0.1942	 0.0138	-0.0004	 0.0000	-0.3042	-0.0812	-0.3732	-0.0703	
   469	-0.1635	 0.0595	-0.0004	 0.0000	-0.4896	-0.0351	-0.5152	 0.0027	-0.2214	 0.0237	 7.7037	-11.3645	-0.3042	-0.0812	-0.3805	-0.0748	
   470	-0.2815	 0.0669	-0.0004	 0.0000	-0.4768	-0.0539	-0.5569	 0.0037	-0.2214	 0.0237	 7.7037	-11.3645	-0.2906	-0.0862	-0.3805	-0.0748	
   471	-0.4130	 0.0793	-0.0004	 0.0000	-0.5113	-0.0485	-0.6531	 0.0245	-0.1942	 0.0138	12.2084	-18.0095	-0.2970	-0.0767	-0.3805	-0.0748	
   472	-0.2815	 0.0669	-0.0004	 0.0000	-0.5113	-0.0485	-0.6403	 0.0056	-0.2006	 0.0232	12.2084	-18.0095	-0.2834	-0.0817	-0.3732	-0.0703	
   473	-0.3135	 0.1141	-0.0004	 0.0000	-0.5113	-0.0485	-0.6403	 0.0056	-0.2006	 0.0232	12.2084	-18.0095	-0.2898	-0.0723	-0.3732	-0.0703	
   474	-0.3135	 0.1141	-0.0004	 0.0000	-0.5177	-0.0391	-0.6531	 0.0245	-0.2214	 0.0237	15.4078	-22.7290	-0.2898	-0.0723	-0.3869	-0.0653	
   475	-0.3135	 0.1141	-0.0004	 0.0000	-0.4487	-0.0499	-0.6114	 0.0235	-0.1733	 0.0133	12.2084	-18.0095	-0.2761	-0.0772	-0.3796	-0.0609	
   476	-0.1955	 0.1067	-0.0004	 0.0000	-0.4142	-0.0554	-0.5152	 0.0027	-0.1452	 0.0173	 7.7037	-11.3645	-0.2898	-0.0723	-0.3796	-0.0609	
   477	-0.0320	 0.0472	-0.0004	 0.0000	-0.4142	-0.0554	-0.5152	 0.0027	-0.1452	 0.0173	-0.0004	 0.0000	-0.2898	-0.0723	-0.3732	-0.0703	
   478	-0.1955	 0.1067	-0.0004	 0.0000	-0.4078	-0.0648	-0.5024	-0.0162	-0.1180	 0.0074	-0.0004	 0.0000	-0.2898	-0.0723	-0.3796	-0.0609	
   479	-0.1955	 0.1067	-0.0004	 0.0000	-0.4359	-0.0688	-0.4896	-0.0351	-0.1180	 0.0074	-0.0004	 0.0000	-0.2761	-0.0772	-0.3796	-0.0609	
   480	-0.3455	 0.1613	-0.0004	 0.0000	-0.4295	-0.0783	-0.4896	-0.0351	-0.1452	 0.0173	-0.0004	 0.0000	-0.2834	-0.0817	-0.4005	-0.0604	
   481	-0.3775	 0.2085	-0.0004	 0.0000	-0.4295	-0.0783	-0.5313	-0.0341	-0.1942	 0.0138	-0.0004	 0.0000	-0.2906	-0.0862	-0.4214	-0.0599	
   482	-0.3455	 0.1613	-0.0004	 0.0000	-0.4231	-0.0877	-0.5858	-0.0142	-0.2214	 0.0237	-0.0004	 0.0000	-0.2978	-0.0907	-0.4286	-0.0644	
   483	-0.3455	 0.1613	-0.0004	 0.0000	-0.3822	-0.1026	-0.5794	-0.0237	-0.2278	 0.0331	 7.7037	-11.3645	-0.3251	-0.0807	-0.4358	-0.0688	
   484	-0.5090	 0.2208	-0.0004	 0.0000	-0.4231	-0.0877	-0.6339	-0.0038	-0.2687	 0.0480	-0.0004	 0.0000	-0.3323	-0.0852	-0.4495	-0.0639	
   485	-0.4770	 0.1736	-0.0004	 0.0000	-0.4103	-0.1066	-0.6620	-0.0078	-0.2623	 0.0386	-0.0004	 0.0000	-0.3396	-0.0897	-0.4431	-0.0733	
   486	-0.3135	 0.1141	-0.0004	 0.0000	-0.4448	-0.1011	-0.6620	-0.0078	-0.2768	 0.0296	-0.0004	 0.0000	-0.3532	-0.0847	-0.4567	-0.0684	
   487	-0.2815	 0.0669	-0.0004	 0.0000	-0.4857	-0.0862	-0.7037	-0.0069	-0.2768	 0.0296	-0.0004	 0.0000	-0.3604	-0.0892	-0.4639	-0.0728	
   488	-0.1955	 0.1067	-0.0004	 0.0000	-0.4448	-0.1011	-0.6620	-0.0078	-0.2977	 0.0301	-0.0004	 0.0000	-0.3813	-0.0887	-0.4711	-0.0773	
   489	-0.1955	 0.1067	-0.0004	 0.0000	-0.4857	-0.0862	-0.7037	-0.0069	-0.3258	 0.0261	-0.0004	 0.0000	-0.3885	-0.0932	-0.4784	-0.0818	
   490	-0.0640	 0.0944	-0.0004	 0.0000	-0.4512	-0.0917	-0.6492	-0.0267	-0.3466	 0.0266	-0.0004	 0.0000	-0.4094	-0.0927	-0.4784	-0.0818	
   491	-0.2275	 0.1539	-0.0004	 0.0000	-0.4857	-0.0862	-0.6492	-0.0267	-0.3258	 0.0261	-0.0004	 0.0000	-0.4166	-0.0972	-0.4856	-0.0863	
   492	-0.1955	 0.1067	-0.0004	 0.0000	-0.5065	-0.0858	-0.6428	-0.0361	-0.3258	 0.0261	-0.0004	 0.0000	-0.4302	-0.0922	-0.4928	-0.0907	
   493	-0.3455	 0.1613	-0.0004	 0.0000	-0.5346	-0.0898	-0.6845	-0.0352	-0.3194	 0.0167	-0.0004	 0.0000	-0.4375	-0.0967	-0.5001	-0.0952	
   494	-0.1955	 0.1067	-0.0004	 0.0000	-0.5282	-0.0992	-0.6845	-0.0352	-0.2785	 0.0018	-0.0004	 0.0000	-0.4383	-0.1106	-0.5137	-0.0903	
   495	-0.1955	 0.1067	-0.0004	 0.0000	-0.5563	-0.1032	-0.7263	-0.0342	-0.3066	-0.0022	-0.0004	 0.0000	-0.4592	-0.1101	-0.5209	-0.0947	
   496	-0.1955	 0.1067	-0.0004	 0.0000	-0.5563	-0.1032	-0.7135	-0.0531	-0.3419	-0.0107	-0.0004	 0.0000	-0.4937	-0.1047	-0.5418	-0.0942	
   497	-0.1635	 0.0595	-0.0004	 0.0000	-0.5836	-0.0933	-0.7616	-0.0427	-0.3627	-0.0102	-0.0004	 0.0000	-0.5081	-0.1136	-0.5627	-0.0938	
   498	-0.1635	 0.0595	-0.0004	 0.0000	-0.6181	-0.0878	-0.8025	-0.0278	-0.3908	-0.0142	-0.0004	 0.0000	-0.5426	-0.1082	-0.5835	-0.0933	
   499	-0.2815	 0.0669	-0.0004	 0.0000	-0.6590	-0.0729	-0.8025	-0.0278	-0.4117	-0.0137	-0.0004	 0.0000	-0.5571	-0.1171	-0.6044	-0.0928	
   500	-0.4450	 0.1264	-0.0004	 0.0000	-0.6806	-0.0864	-0.8442	-0.0268	-0.4262	-0.0226	-0.0004	 0.0000	-0.5715	-0.1261	-0.6116	-0.0973	
   501	-0.4450	 0.1264	-0.0004	 0.0000	-0.7015	-0.0859	-0.8314	-0.0457	-0.4470	-0.0221	-0.0004	 0.0000	-0.5924	-0.1256	-0.6325	-0.0968	
   502	-0.5950	 0.1810	-0.0004	 0.0000	-0.7360	-0.0804	-0.8795	-0.0353	-0.4943	 0.0022	-0.0004	 0.0000	-0.5996	-0.1301	-0.6325	-0.0968	
   503	-0.5950	 0.1810	-0.0004	 0.0000	-0.7769	-0.0655	-0.8859	-0.0258	-0.4879	-0.0073	-0.0004	 0.0000	-0.6133	-0.1251	-0.6188	-0.1017	
   504	-0.6270	 0.2282	-0.0004	 0.0000	-0.7833	-0.0561	-0.7897	-0.0467	-0.4534	-0.0127	-0.0004	 0.0000	-0.6060	-0.1207	-0.5980	-0.1022	
   505	-0.6590	 0.2754	-0.0004	 0.0000	-0.7488	-0.0615	-0.7680	-0.0332	-0.4390	-0.0037	-0.0004	 0.0000	-0.5852	-0.1211	-0.5835	-0.0933	
   506	-0.5090	 0.2208	-0.0004	 0.0000	-0.6998	-0.0580	-0.7519	 0.0036	-0.4100	 0.0142	-0.0004	 0.0000	-0.5498	-0.1127	-0.5482	-0.0848	
   507	-0.5090	 0.2208	-0.0004	 0.0000	-0.6654	-0.0635	-0.7165	 0.0120	-0.3466	 0.0266	-0.0004	 0.0000	-0.5073	-0.0997	-0.4920	-0.0768	
   508	-0.2275	 0.1539	-0.0004	 0.0000	-0.5755	-0.0749	-0.6403	 0.0056	-0.2977	 0.0301	-0.0004	 0.0000	-0.4720	-0.0913	-0.4567	-0.0684	
   509	-0.1955	 0.1067	-0.0004	 0.0000	-0.5474	-0.0709	-0.5986	 0.0046	-0.2768	 0.0296	-0.0004	 0.0000	-0.4366	-0.0828	-0.4422	-0.0594	
   510	-0.2275	 0.1539	-0.0004	 0.0000	-0.4921	-0.0768	-0.5152	 0.0027	-0.2278	 0.0331	-0.0004	 0.0000	-0.4085	-0.0788	-0.4141	-0.0554	
   511	-0.0960	 0.1416	-0.0004	 0.0000	-0.4295	-0.0783	-0.4670	-0.0077	-0.2134	 0.0421	-0.0004	 0.0000	-0.3805	-0.0748	-0.3933	-0.0559	
   512	-0.0960	 0.1416	-0.0004	 0.0000	-0.3950	-0.0837	-0.4517	 0.0152	-0.1372	 0.0357	-0.0004	 0.0000	-0.3524	-0.0708	-0.3796	-0.0609	
   513	-0.2275	 0.1539	-0.0004	 0.0000	-0.4487	-0.0499	-0.4926	 0.0300	-0.1644	 0.0456	-0.0004	 0.0000	-0.3451	-0.0663	-0.3724	-0.0564	
   514	-0.3455	 0.1613	-0.0004	 0.0000	-0.4896	-0.0351	-0.5344	 0.0310	-0.1500	 0.0546	-0.0004	 0.0000	-0.3106	-0.0718	-0.3588	-0.0613	
   515	-0.3775	 0.2085	-0.0004	 0.0000	-0.4896	-0.0351	-0.5471	 0.0499	-0.1291	 0.0541	-0.0004	 0.0000	-0.3098	-0.0579	-0.3652	-0.0519	
   516	-0.2595	 0.2011	-0.0004	 0.0000	-0.4551	-0.0405	-0.5471	 0.0499	-0.1291	 0.0541	-0.0004	 0.0000	-0.2962	-0.0628	-0.3652	-0.0519	
   517	-0.1280	 0.1887	-0.0004	 0.0000	-0.3997	-0.0464	-0.4645	 0.0340	-0.1018	 0.0442	-0.0004	 0.0000	-0.2825	-0.0678	-0.3716	-0.0425	
   518	 0.0220	 0.1342	-0.0004	 0.0000	-0.3307	-0.0573	-0.4164	 0.0236	-0.1227	 0.0446	 7.7037	-11.3645	-0.2825	-0.0678	-0.3588	-0.0613	
   519	 0.0220	 0.1342	-0.0004	 0.0000	-0.3307	-0.0573	-0.4164	 0.0236	-0.0954	 0.0347	 7.7037	-11.3645	-0.2889	-0.0584	-0.3588	-0.0613	
   520	-0.0960	 0.1416	-0.0004	 0.0000	-0.3652	-0.0519	-0.4645	 0.0340	-0.1018	 0.0442	 7.7037	-11.3645	-0.2753	-0.0633	-0.3588	-0.0613	
   521	-0.0960	 0.1416	-0.0004	 0.0000	-0.3652	-0.0519	-0.4645	 0.0340	-0.1018	 0.0442	-0.0004	 0.0000	-0.2681	-0.0588	-0.3515	-0.0569	
   522	 0.0220	 0.1342	-0.0004	 0.0000	-0.3652	-0.0519	-0.4645	 0.0340	-0.1018	 0.0442	-0.0004	 0.0000	-0.2545	-0.0638	-0.3443	-0.0524	
   523	-0.1280	 0.1887	-0.0004	 0.0000	-0.3997	-0.0464	-0.4798	 0.0112	-0.1146	 0.0630	-0.0004	 0.0000	-0.2545	-0.0638	-0.3443	-0.0524	
   524	-0.1280	 0.1887	-0.0004	 0.0000	-0.3997	-0.0464	-0.4670	-0.0077	-0.1018	 0.0442	-0.0004	 0.0000	-0.2545	-0.0638	-0.3443	-0.0524	
   525	-0.0100	 0.1814	-0.0004	 0.0000	-0.3243	-0.0668	-0.4517	 0.0152	-0.1291	 0.0541	 7.7037	-11.3645	-0.2481	-0.0732	-0.3588	-0.0613	
   526	 0.0220	 0.1342	-0.0004	 0.0000	-0.3652	-0.0519	-0.4389	-0.0037	-0.1146	 0.0630	 7.7037	-11.3645	-0.2481	-0.0732	-0.3588	-0.0613	
   527	 0.1855	 0.0746	-0.0004	 0.0000	-0.3307	-0.0573	-0.4517	 0.0152	-0.1419	 0.0730	 7.7037	-11.3645	-0.2617	-0.0683	-0.3724	-0.0564	
   528	 0.0860	 0.0398	-0.0004	 0.0000	-0.3652	-0.0519	-0.4798	 0.0112	-0.1564	 0.0640	-0.0004	 0.0000	-0.2689	-0.0728	-0.3796	-0.0609	
   529	 0.2175	 0.0274	-0.0004	 0.0000	-0.3652	-0.0519	-0.4926	 0.0300	-0.1419	 0.0730	-0.0004	 0.0000	-0.2825	-0.0678	-0.3933	-0.0559	
   530	 0.0540	 0.0870	-0.0004	 0.0000	-0.4061	-0.0370	-0.4798	 0.0112	-0.1564	 0.0640	-0.0004	 0.0000	-0.2898	-0.0723	-0.4069	-0.0509	
   531	-0.0640	 0.0944	-0.0004	 0.0000	-0.3997	-0.0464	-0.5761	 0.0320	-0.1644	 0.0456	-0.0004	 0.0000	-0.2970	-0.0767	-0.4141	-0.0554	
   532	-0.0320	 0.0472	-0.0004	 0.0000	-0.3997	-0.0464	-0.5697	 0.0225	-0.1516	 0.0267	 7.7037	-11.3645	-0.3243	-0.0668	-0.4214	-0.0599	
   533	 0.0860	 0.0398	-0.0004	 0.0000	-0.4061	-0.0370	-0.5216	 0.0121	-0.1644	 0.0456	-0.0004	 0.0000	-0.3179	-0.0763	-0.4350	-0.0549	
   534	-0.0640	 0.0944	-0.0004	 0.0000	-0.3997	-0.0464	-0.5697	 0.0225	-0.1516	 0.0267	-0.0004	 0.0000	-0.3387	-0.0758	-0.4559	-0.0544	
   535	-0.0640	 0.0944	-0.0004	 0.0000	-0.4270	-0.0365	-0.5569	 0.0037	-0.1861	 0.0322	-0.0004	 0.0000	-0.3524	-0.0708	-0.4495	-0.0639	
   536	-0.1955	 0.1067	-0.0004	 0.0000	-0.4896	-0.0351	-0.6403	 0.0056	-0.1861	 0.0322	-0.0004	 0.0000	-0.3596	-0.0753	-0.4631	-0.0589	
   537	-0.0320	 0.0472	-0.0004	 0.0000	-0.5177	-0.0391	-0.6748	 0.0110	-0.1861	 0.0322	-0.0004	 0.0000	-0.3668	-0.0798	-0.4703	-0.0634	
   538	-0.1955	 0.1067	-0.0004	 0.0000	-0.5449	-0.0291	-0.7293	 0.0309	-0.2214	 0.0237	-0.0004	 0.0000	-0.4013	-0.0743	-0.4912	-0.0629	
   539	-0.1955	 0.1067	-0.0004	 0.0000	-0.5385	-0.0386	-0.7165	 0.0120	-0.2495	 0.0197	-0.0004	 0.0000	-0.4158	-0.0833	-0.5120	-0.0624	
   540	-0.1955	 0.1067	-0.0004	 0.0000	-0.5449	-0.0291	-0.7293	 0.0309	-0.2849	 0.0112	 7.7037	-11.3645	-0.4503	-0.0778	-0.5401	-0.0664	
   541	-0.1955	 0.1067	-0.0004	 0.0000	-0.5794	-0.0237	-0.7165	 0.0120	-0.3258	 0.0261	 7.7037	-11.3645	-0.4647	-0.0868	-0.5610	-0.0659	
   542	-0.3135	 0.1141	-0.0004	 0.0000	-0.6139	-0.0182	-0.7583	 0.0130	-0.3466	 0.0266	 7.7037	-11.3645	-0.4856	-0.0863	-0.5682	-0.0704	
   543	-0.1635	 0.0595	-0.0004	 0.0000	-0.6220	-0.0366	-0.7519	 0.0036	-0.3611	 0.0177	 7.7037	-11.3645	-0.5065	-0.0858	-0.5755	-0.0749	
   544	-0.1955	 0.1067	-0.0004	 0.0000	-0.6220	-0.0366	-0.7519	 0.0036	-0.3547	 0.0082	 7.7037	-11.3645	-0.5073	-0.0997	-0.5891	-0.0699	
   545	-0.1955	 0.1067	-0.0004	 0.0000	-0.6156	-0.0461	-0.7808	-0.0144	-0.4100	 0.0142	 7.7037	-11.3645	-0.5282	-0.0992	-0.5899	-0.0838	
   546	-0.1955	 0.1067	-0.0004	 0.0000	-0.6437	-0.0501	-0.7263	-0.0342	-0.4454	 0.0057	 7.7037	-11.3645	-0.5562	-0.1032	-0.6108	-0.0834	
   547	-0.0320	 0.0472	-0.0004	 0.0000	-0.6437	-0.0501	-0.7680	-0.0332	-0.4662	 0.0062	12.2084	-18.0095	-0.5843	-0.1072	-0.6252	-0.0923	
   548	-0.1955	 0.1067	-0.0004	 0.0000	-0.6782	-0.0446	-0.8025	-0.0278	-0.4943	 0.0022	12.2084	-18.0095	-0.5988	-0.1162	-0.6461	-0.0918	
   549	-0.1635	 0.0595	-0.0004	 0.0000	-0.7062	-0.0486	-0.8442	-0.0268	-0.5216	 0.0121	 7.7037	-11.3645	-0.6060	-0.1207	-0.6533	-0.0963	
   550	-0.2815	 0.0669	-0.0004	 0.0000	-0.7207	-0.0576	-0.9532	 0.0129	-0.5424	 0.0126	 7.7037	-11.3645	-0.6341	-0.1246	-0.6742	-0.0958	
   551	-0.4770	 0.1736	-0.0004	 0.0000	-0.7360	-0.0804	-0.9813	 0.0089	-0.5424	 0.0126	-0.0004	 0.0000	-0.6550	-0.1242	-0.6814	-0.1003	
   552	-0.3455	 0.1613	-0.0004	 0.0000	-0.6823	-0.1142	-0.9813	 0.0089	-0.5296	-0.0063	-0.0004	 0.0000	-0.6758	-0.1237	-0.7023	-0.0998	
   553	-0.4770	 0.1736	-0.0004	 0.0000	-0.7168	-0.1087	-0.9749	-0.0006	-0.5641	-0.0008	-0.0004	 0.0000	-0.6903	-0.1326	-0.7232	-0.0993	
   554	-0.5090	 0.2208	-0.0004	 0.0000	-0.7168	-0.1087	-0.9341	-0.0154	-0.5786	-0.0098	-0.0004	 0.0000	-0.7184	-0.1366	-0.7304	-0.1038	
   555	-0.5090	 0.2208	-0.0004	 0.0000	-0.7641	-0.0844	-0.8987	-0.0070	-0.6058	 0.0001	-0.0004	 0.0000	-0.7320	-0.1317	-0.7304	-0.1038	
   556	-0.5410	 0.2680	-0.0004	 0.0000	-0.7769	-0.0655	-0.8570	-0.0079	-0.5914	 0.0091	-0.0004	 0.0000	-0.7184	-0.1366	-0.7232	-0.0993	
   557	-0.5410	 0.2680	-0.0004	 0.0000	-0.7914	-0.0745	-0.8089	-0.0183	-0.5424	 0.0126	-0.0004	 0.0000	-0.7039	-0.1277	-0.6878	-0.0909	
   558	-0.5410	 0.2680	-0.0004	 0.0000	-0.7769	-0.0655	-0.8345	 0.0194	-0.5216	 0.0121	-0.0004	 0.0000	-0.6758	-0.1237	-0.6461	-0.0918	
   559	-0.4095	 0.2557	-0.0004	 0.0000	-0.7207	-0.0576	-0.7711	 0.0319	-0.4726	 0.0156	-0.0004	 0.0000	-0.6469	-0.1058	-0.6172	-0.0739	
   560	-0.3775	 0.2085	-0.0004	 0.0000	-0.6654	-0.0635	-0.6812	 0.0205	-0.4309	 0.0146	-0.0004	 0.0000	-0.5980	-0.1023	-0.5755	-0.0749	
   561	-0.2595	 0.2011	-0.0004	 0.0000	-0.5883	-0.0560	-0.6242	 0.0424	-0.3883	 0.0276	-0.0004	 0.0000	-0.5626	-0.0938	-0.5538	-0.0615	
   562	-0.1280	 0.1887	-0.0004	 0.0000	-0.5193	-0.0669	-0.5344	 0.0310	-0.3803	 0.0460	-0.0004	 0.0000	-0.5209	-0.0948	-0.5329	-0.0619	
   563	-0.1280	 0.1887	-0.0004	 0.0000	-0.4704	-0.0634	-0.4926	 0.0300	-0.3385	 0.0450	-0.0004	 0.0000	-0.4928	-0.0908	-0.5120	-0.0624	
   564	-0.1599	 0.2359	-0.0004	 0.0000	-0.3950	-0.0837	-0.4645	 0.0340	-0.3385	 0.0450	 7.7037	-11.3645	-0.4784	-0.0818	-0.4912	-0.0629	
   565	-0.1280	 0.1887	-0.0004	 0.0000	-0.3950	-0.0837	-0.4645	 0.0340	-0.3041	 0.0396	-0.0004	 0.0000	-0.4503	-0.0778	-0.4839	-0.0584	
   566	-0.0100	 0.1814	-0.0004	 0.0000	-0.3805	-0.0748	-0.4645	 0.0340	-0.2896	 0.0485	-0.0004	 0.0000	-0.4294	-0.0783	-0.4631	-0.0589	
   567	-0.1280	 0.1887	-0.0004	 0.0000	-0.4078	-0.0648	-0.4926	 0.0300	-0.2896	 0.0485	-0.0004	 0.0000	-0.4222	-0.0738	-0.4495	-0.0639	
   568	 0.0220	 0.1342	-0.0004	 0.0000	-0.3869	-0.0653	-0.4517	 0.0152	-0.2896	 0.0485	 7.7037	-11.3645	-0.4085	-0.0788	-0.4495	-0.0639	
   569	-0.0100	 0.1814	-0.0004	 0.0000	-0.3652	-0.0519	-0.4164	 0.0236	-0.2406	 0.0520	-0.0004	 0.0000	-0.4013	-0.0743	-0.4559	-0.0544	
   570	-0.1280	 0.1887	-0.0004	 0.0000	-0.3588	-0.0613	-0.4645	 0.0340	-0.2278	 0.0331	-0.0004	 0.0000	-0.3877	-0.0793	-0.4495	-0.0639	
   571	-0.1280	 0.1887	-0.0004	 0.0000	-0.3588	-0.0613	-0.4100	 0.0142	-0.2006	 0.0232	-0.0004	 0.0000	-0.3805	-0.0748	-0.4495	-0.0639	
   572	-0.1280	 0.1887	-0.0004	 0.0000	-0.3588	-0.0613	-0.4100	 0.0142	-0.2134	 0.0421	-0.0004	 0.0000	-0.3668	-0.0798	-0.4495	-0.0639	
   573	-0.0100	 0.1814	-0.0004	 0.0000	-0.3997	-0.0464	-0.4645	 0.0340	-0.2134	 0.0421	-0.0004	 0.0000	-0.3668	-0.0798	-0.4559	-0.0544	
   574	-0.1280	 0.1887	-0.0004	 0.0000	-0.3997	-0.0464	-0.4926	 0.0300	-0.2406	 0.0520	-0.0004	 0.0000	-0.3596	-0.0753	-0.4495	-0.0639	
   575	-0.1280	 0.1887	-0.0004	 0.0000	-0.4061	-0.0370	-0.5054	 0.0489	-0.2214	 0.0237	 7.7037	-11.3645	-0.3596	-0.0753	-0.4631	-0.0589	
   576	-0.0100	 0.1814	-0.0004	 0.0000	-0.3844	-0.0236	-0.4709	 0.0435	-0.2278	 0.0331	 7.7037	-11.3645	-0.3532	-0.0847	-0.4567	-0.0684	
   577	-0.0100	 0.1814	-0.0004	 0.0000	-0.3435	-0.0385	-0.4709	 0.0435	-0.2006	 0.0232	 7.7037	-11.3645	-0.3668	-0.0798	-0.4703	-0.0634	
   578	-0.0960	 0.1416	-0.0004	 0.0000	-0.4061	-0.0370	-0.4645	 0.0340	-0.2134	 0.0421	-0.0004	 0.0000	-0.3668	-0.0798	-0.4703	-0.0634	
   579	-0.0960	 0.1416	-0.0004	 0.0000	-0.3997	-0.0464	-0.4798	 0.0112	-0.2198	 0.0515	-0.0004	 0.0000	-0.3668	-0.0798	-0.4839	-0.0584	
   580	 0.0220	 0.1342	-0.0004	 0.0000	-0.4061	-0.0370	-0.4389	-0.0037	-0.2198	 0.0515	-0.0004	 0.0000	-0.3805	-0.0748	-0.4775	-0.0679	
   581	-0.1280	 0.1887	-0.0004	 0.0000	-0.3869	-0.0653	-0.5152	 0.0027	-0.2470	 0.0615	-0.0004	 0.0000	-0.3877	-0.0793	-0.4848	-0.0723	
   582	 0.0220	 0.1342	-0.0004	 0.0000	-0.3588	-0.0613	-0.4670	-0.0077	-0.2815	 0.0669	-0.0004	 0.0000	-0.3949	-0.0838	-0.4920	-0.0768	
   583	 0.0540	 0.0870	-0.0004	 0.0000	-0.3997	-0.0464	-0.4606	-0.0172	-0.3169	 0.0584	 7.7037	-11.3645	-0.4158	-0.0833	-0.5201	-0.0808	
   584	-0.0960	 0.1416	-0.0004	 0.0000	-0.3869	-0.0653	-0.4606	-0.0172	-0.3577	 0.0733	 7.7037	-11.3645	-0.4230	-0.0878	-0.5337	-0.0759	
   585	-0.1955	 0.1067	-0.0004	 0.0000	-0.4551	-0.0405	-0.5441	-0.0152	-0.3577	 0.0733	 7.7037	-11.3645	-0.4302	-0.0922	-0.5410	-0.0803	
   586	-0.1635	 0.0595	-0.0004	 0.0000	-0.4487	-0.0499	-0.5986	 0.0046	-0.3658	 0.0549	 7.7037	-11.3645	-0.4375	-0.0967	-0.5682	-0.0704	
   587	-0.1635	 0.0595	-0.0004	 0.0000	-0.4768	-0.0539	-0.6403	 0.0056	-0.3658	 0.0549	 7.7037	-11.3645	-0.4720	-0.0913	-0.5755	-0.0749	
   588	-0.3455	 0.1613	-0.0004	 0.0000	-0.5177	-0.0391	-0.6748	 0.0110	-0.4011	 0.0465	12.2084	-18.0095	-0.4792	-0.0957	-0.6236	-0.0645	
   589	-0.1955	 0.1067	-0.0004	 0.0000	-0.4768	-0.0539	-0.6748	 0.0110	-0.4292	 0.0425	12.2084	-18.0095	-0.5001	-0.0952	-0.6308	-0.0690	
   590	-0.0640	 0.0944	-0.0004	 0.0000	-0.4896	-0.0351	-0.6403	 0.0056	-0.4228	 0.0330	12.2084	-18.0095	-0.5209	-0.0948	-0.6517	-0.0685	
   591	-0.0320	 0.0472	-0.0004	 0.0000	-0.5177	-0.0391	-0.6748	 0.0110	-0.4373	 0.0241	12.2084	-18.0095	-0.5418	-0.0943	-0.6589	-0.0729	
   592	-0.0320	 0.0472	-0.0004	 0.0000	-0.5385	-0.0386	-0.6620	-0.0078	-0.4309	 0.0146	12.2084	-18.0095	-0.5626	-0.0938	-0.6597	-0.0869	
   593	-0.1635	 0.0595	-0.0004	 0.0000	-0.5193	-0.0669	-0.7165	 0.0120	-0.4582	 0.0246	12.2084	-18.0095	-0.5635	-0.1077	-0.6806	-0.0864	
   594	-0.1635	 0.0595	-0.0004	 0.0000	-0.5538	-0.0614	-0.7037	-0.0069	-0.4726	 0.0156	12.2084	-18.0095	-0.5843	-0.1072	-0.6878	-0.0909	
   595	-0.1955	 0.1067	-0.0004	 0.0000	-0.5755	-0.0749	-0.6845	-0.0352	-0.5071	 0.0211	 7.7037	-11.3645	-0.6052	-0.1067	-0.7015	-0.0859	
   596	-0.3455	 0.1613	-0.0004	 0.0000	-0.5964	-0.0744	-0.7263	-0.0342	-0.5488	 0.0220	 7.7037	-11.3645	-0.6261	-0.1063	-0.7295	-0.0899	
   597	-0.4770	 0.1736	-0.0004	 0.0000	-0.6245	-0.0784	-0.7135	-0.0531	-0.5424	 0.0126	-0.0004	 0.0000	-0.6469	-0.1058	-0.7295	-0.0899	
   598	-0.5090	 0.2208	-0.0004	 0.0000	-0.6373	-0.0595	-0.6717	-0.0541	-0.5705	 0.0086	-0.0004	 0.0000	-0.6614	-0.1147	-0.7504	-0.0894	
   599	-0.6270	 0.2282	-0.0004	 0.0000	-0.6654	-0.0635	-0.7680	-0.0332	-0.5914	 0.0091	 7.7037	-11.3645	-0.6758	-0.1237	-0.7713	-0.0889	
   600	-0.7265	 0.1934	-0.0004	 0.0000	-0.7207	-0.0576	-0.8570	-0.0079	-0.6331	 0.0101	 7.7037	-11.3645	-0.6903	-0.1326	-0.7721	-0.1028	
   601	-0.5950	 0.1810	-0.0004	 0.0000	-0.7207	-0.0576	-0.8025	-0.0278	-0.5995	-0.0093	-0.0004	 0.0000	-0.7248	-0.1272	-0.7857	-0.0979	
   602	-0.5950	 0.1810	-0.0004	 0.0000	-0.7833	-0.0561	-0.8987	-0.0070	-0.6548	-0.0034	-0.0004	 0.0000	-0.7393	-0.1361	-0.8002	-0.1068	
   603	-0.5950	 0.1810	-0.0004	 0.0000	-0.8042	-0.0556	-0.9341	-0.0154	-0.6629	-0.0218	-0.0004	 0.0000	-0.7738	-0.1307	-0.8347	-0.1014	
   604	-0.5630	 0.1338	-0.0004	 0.0000	-0.7914	-0.0745	-0.9621	-0.0194	-0.6709	-0.0402	 7.7037	-11.3645	-0.8019	-0.1347	-0.8355	-0.1153	
   605	-0.4450	 0.1264	-0.0004	 0.0000	-0.7914	-0.0745	-0.9621	-0.0194	-0.6709	-0.0402	-0.0004	 0.0000	-0.8163	-0.1436	-0.8764	-0.1004	
   606	-0.5950	 0.1810	-0.0004	 0.0000	-0.8603	-0.0636	-1.0039	-0.0185	-0.6837	-0.0213	-0.0004	 0.0000	-0.8372	-0.1432	-0.8772	-0.1143	
   607	-0.7265	 0.1934	-0.0004	 0.0000	-0.8748	-0.0726	-1.0456	-0.0175	-0.7255	-0.0203	-0.0004	 0.0000	-0.8653	-0.1471	-0.9053	-0.1183	
   608	-0.6945	 0.1462	-0.0004	 0.0000	-0.9093	-0.0671	-1.0801	-0.0120	-0.7471	-0.0337	-0.0004	 0.0000	-0.8797	-0.1561	-0.9126	-0.1228	
   609	-0.5630	 0.1338	-0.0004	 0.0000	-0.9438	-0.0617	-1.0801	-0.0120	-0.7471	-0.0337	-0.0004	 0.0000	-0.9006	-0.1556	-0.9262	-0.1178	
   610	-0.5630	 0.1338	-0.0004	 0.0000	-0.9582	-0.0706	-1.1218	-0.0111	-0.7680	-0.0333	-0.0004	 0.0000	-0.9215	-0.1551	-0.9262	-0.1178	
   611	-0.5950	 0.1810	-0.0004	 0.0000	-0.9029	-0.0765	-1.0392	-0.0269	-0.7953	-0.0233	-0.0004	 0.0000	-0.9215	-0.1551	-0.9126	-0.1228	
   612	-0.4770	 0.1736	-0.0004	 0.0000	-0.8684	-0.0820	-0.9493	-0.0383	-0.7872	-0.0049	-0.0004	 0.0000	-0.9070	-0.1462	-0.8845	-0.1188	
   613	-0.5090	 0.2208	-0.0004	 0.0000	-0.8194	-0.0785	-0.8859	-0.0258	-0.7255	-0.0203	-0.0004	 0.0000	-0.8789	-0.1422	-0.8564	-0.1148	
   614	-0.5410	 0.2680	-0.0004	 0.0000	-0.7641	-0.0844	-0.7680	-0.0332	-0.6757	-0.0029	-0.0004	 0.0000	-0.8436	-0.1337	-0.7938	-0.1163	
   615	-0.4095	 0.2557	-0.0004	 0.0000	-0.7079	-0.0764	-0.7037	-0.0069	-0.6058	 0.0001	-0.0004	 0.0000	-0.7874	-0.1257	-0.7585	-0.1078	
   616	-0.4095	 0.2557	-0.0004	 0.0000	-0.6934	-0.0675	-0.6339	-0.0038	-0.6186	 0.0190	-0.0004	 0.0000	-0.7457	-0.1267	-0.7232	-0.0993	
   617	-0.1280	 0.1887	-0.0004	 0.0000	-0.5964	-0.0744	-0.5313	-0.0341	-0.5978	 0.0185	-0.0004	 0.0000	-0.7240	-0.1133	-0.7159	-0.0948	
   618	-0.1280	 0.1887	-0.0004	 0.0000	-0.6028	-0.0649	-0.5441	-0.0152	-0.5897	 0.0369	-0.0004	 0.0000	-0.6758	-0.1237	-0.6814	-0.1003	
   619	-0.0960	 0.1416	-0.0004	 0.0000	-0.5947	-0.0466	-0.4896	-0.0351	-0.5897	 0.0369	12.2084	-18.0095	-0.6478	-0.1197	-0.6878	-0.0909	
   620	-0.2595	 0.2011	-0.0004	 0.0000	-0.5947	-0.0466	-0.5441	-0.0152	-0.5344	 0.0310	12.2084	-18.0095	-0.6333	-0.1107	-0.6742	-0.0958	
   621	-0.2595	 0.2011	-0.0004	 0.0000	-0.5730	-0.0331	-0.5152	 0.0027	-0.5135	 0.0305	12.2084	-18.0095	-0.5988	-0.1162	-0.6533	-0.0963	
   622	-0.3775	 0.2085	-0.0004	 0.0000	-0.6139	-0.0182	-0.5697	 0.0225	-0.5344	 0.0310	15.4078	-22.7290	-0.5916	-0.1117	-0.6597	-0.0869	
   623	-0.3775	 0.2085	-0.0004	 0.0000	-0.5730	-0.0331	-0.5697	 0.0225	-0.5071	 0.0211	 7.7037	-11.3645	-0.5707	-0.1122	-0.6525	-0.0824	
   624	-0.2275	 0.1539	-0.0004	 0.0000	-0.5730	-0.0331	-0.5697	 0.0225	-0.4726	 0.0156	-0.0004	 0.0000	-0.5707	-0.1122	-0.6525	-0.0824	
   625	-0.2275	 0.1539	-0.0004	 0.0000	-0.5321	-0.0480	-0.5697	 0.0225	-0.4582	 0.0246	-0.0004	 0.0000	-0.5771	-0.1027	-0.6525	-0.0824	
   626	-0.0640	 0.0944	-0.0004	 0.0000	-0.5385	-0.0386	-0.4670	-0.0077	-0.4582	 0.0246	 7.7037	-11.3645	-0.5635	-0.1077	-0.6525	-0.0824	
   627	-0.0960	 0.1416	-0.0004	 0.0000	-0.5113	-0.0485	-0.4261	-0.0226	-0.4582	 0.0246	12.2084	-18.0095	-0.5771	-0.1027	-0.6461	-0.0918	
   628	-0.1955	 0.1067	-0.0004	 0.0000	-0.5113	-0.0485	-0.4670	-0.0077	-0.4646	 0.0340	12.2084	-18.0095	-0.5635	-0.1077	-0.6597	-0.0869	
   629	-0.1955	 0.1067	-0.0004	 0.0000	-0.5113	-0.0485	-0.4670	-0.0077	-0.4646	 0.0340	12.2084	-18.0095	-0.5699	-0.0983	-0.6461	-0.0918	
   630	-0.3135	 0.1141	-0.0004	 0.0000	-0.5321	-0.0480	-0.5697	 0.0225	-0.4373	 0.0241	15.4078	-22.7290	-0.5699	-0.0983	-0.6461	-0.0918	
   631	-0.1955	 0.1067	-0.0004	 0.0000	-0.5049	-0.0579	-0.6114	 0.0235	-0.4228	 0.0330	 7.7037	-11.3645	-0.5562	-0.1032	-0.6461	-0.0918	
   632	-0.0640	 0.0944	-0.0004	 0.0000	-0.4768	-0.0539	-0.5569	 0.0037	-0.4373	 0.0241	 7.7037	-11.3645	-0.5562	-0.1032	-0.6461	-0.0918	
   633	-0.0640	 0.0944	-0.0004	 0.0000	-0.4896	-0.0351	-0.5986	 0.0046	-0.4582	 0.0246	15.4078	-22.7290	-0.5635	-0.1077	-0.6533	-0.0963	
   634	-0.0960	 0.1416	-0.0004	 0.0000	-0.4551	-0.0405	-0.5569	 0.0037	-0.4582	 0.0246	15.4078	-22.7290	-0.5771	-0.1027	-0.6806	-0.0864	
   635	-0.2595	 0.2011	-0.0004	 0.0000	-0.4551	-0.0405	-0.5986	 0.0046	-0.4582	 0.0246	12.2084	-18.0095	-0.5707	-0.1122	-0.6878	-0.0909	
   636	-0.5410	 0.2680	-0.0004	 0.0000	-0.4896	-0.0351	-0.6403	 0.0056	-0.4582	 0.0246	 7.7037	-11.3645	-0.5843	-0.1072	-0.6814	-0.1003	
   637	-0.4095	 0.2557	-0.0004	 0.0000	-0.4487	-0.0499	-0.5858	-0.0142	-0.4726	 0.0156	 7.7037	-11.3645	-0.5980	-0.1023	-0.6887	-0.1048	
   638	-0.2595	 0.2011	-0.0004	 0.0000	-0.4487	-0.0499	-0.6403	 0.0056	-0.5344	 0.0310	 7.7037	-11.3645	-0.6052	-0.1067	-0.7095	-0.1043	
   639	-0.2275	 0.1539	-0.0004	 0.0000	-0.4487	-0.0499	-0.6748	 0.0110	-0.5833	 0.0275	12.2084	-18.0095	-0.6261	-0.1063	-0.7168	-0.1088	
   640	-0.2275	 0.1539	-0.0004	 0.0000	-0.4768	-0.0539	-0.6748	 0.0110	-0.6250	 0.0285	12.2084	-18.0095	-0.6469	-0.1058	-0.7440	-0.0988	
   641	-0.2275	 0.1539	-0.0004	 0.0000	-0.4768	-0.0539	-0.6748	 0.0110	-0.6250	 0.0285	15.4078	-22.7290	-0.6542	-0.1102	-0.7448	-0.1128	
   642	-0.2275	 0.1539	-0.0004	 0.0000	-0.5049	-0.0579	-0.6748	 0.0110	-0.6250	 0.0285	12.2084	-18.0095	-0.6614	-0.1147	-0.7585	-0.1078	
   643	-0.3775	 0.2085	-0.0004	 0.0000	-0.5321	-0.0480	-0.7293	 0.0309	-0.6459	 0.0289	12.2084	-18.0095	-0.6686	-0.1192	-0.7721	-0.1028	
   644	-0.3455	 0.1613	-0.0004	 0.0000	-0.5538	-0.0614	-0.7711	 0.0319	-0.6740	 0.0249	12.2084	-18.0095	-0.6758	-0.1237	-0.7793	-0.1073	
   645	-0.3775	 0.2085	-0.0004	 0.0000	-0.5883	-0.0560	-0.8128	 0.0328	-0.6949	 0.0254	12.2084	-18.0095	-0.6895	-0.1187	-0.7866	-0.1118	
   646	-0.5090	 0.2208	-0.0004	 0.0000	-0.6156	-0.0461	-0.8473	 0.0383	-0.7093	 0.0165	15.4078	-22.7290	-0.7039	-0.1277	-0.7938	-0.1163	
   647	-0.5090	 0.2208	-0.0004	 0.0000	-0.6437	-0.0501	-0.8217	 0.0005	-0.7302	 0.0170	15.4078	-22.7290	-0.7248	-0.1272	-0.8147	-0.1158	
   648	-0.3775	 0.2085	-0.0004	 0.0000	-0.6565	-0.0312	-0.8345	 0.0194	-0.7174	-0.0019	15.4078	-22.7290	-0.7457	-0.1267	-0.8355	-0.1153	
   649	-0.3775	 0.2085	-0.0004	 0.0000	-0.6437	-0.0501	-0.8762	 0.0204	-0.7383	-0.0014	15.4078	-22.7290	-0.7601	-0.1357	-0.8428	-0.1198	
   650	-0.3775	 0.2085	-0.0004	 0.0000	-0.6437	-0.0501	-0.8217	 0.0005	-0.7663	-0.0054	12.2084	-18.0095	-0.7810	-0.1352	-0.8772	-0.1143	
   651	-0.5090	 0.2208	-0.0004	 0.0000	-0.6782	-0.0446	-0.8634	 0.0015	-0.7872	-0.0049	15.4078	-22.7290	-0.8019	-0.1347	-0.8781	-0.1282	
   652	-0.6270	 0.2282	-0.0004	 0.0000	-0.7616	-0.0427	-0.9532	 0.0129	-0.8017	-0.0139	15.4078	-22.7290	-0.8227	-0.1342	-0.8853	-0.1327	
   653	-0.4770	 0.1736	-0.0004	 0.0000	-0.7488	-0.0615	-0.9405	-0.0060	-0.8017	-0.0139	12.2084	-18.0095	-0.8372	-0.1432	-0.8989	-0.1277	
   654	-0.4450	 0.1264	-0.0004	 0.0000	-0.7833	-0.0561	-0.9341	-0.0154	-0.8225	-0.0134	12.2084	-18.0095	-0.8580	-0.1427	-0.9198	-0.1273	
   655	-0.5950	 0.1810	-0.0004	 0.0000	-0.7914	-0.0745	-0.9621	-0.0194	-0.8506	-0.0174	15.4078	-22.7290	-0.8861	-0.1467	-0.9407	-0.1268	
   656	-0.6270	 0.2282	-0.0004	 0.0000	-0.7914	-0.0745	-0.9749	-0.0006	-0.8715	-0.0169	15.4078	-22.7290	-0.9070	-0.1462	-0.9615	-0.1263	
   657	-0.5950	 0.1810	-0.0004	 0.0000	-0.7914	-0.0745	-0.9621	-0.0194	-0.8859	-0.0259	15.4078	-22.7290	-0.9215	-0.1551	-0.9824	-0.1258	
   658	-0.7265	 0.1934	-0.0004	 0.0000	-0.7914	-0.0745	-1.0039	-0.0185	-0.9068	-0.0254	12.2084	-18.0095	-0.9423	-0.1546	-0.9824	-0.1258	
   659	-0.4450	 0.1264	-0.0004	 0.0000	-0.8667	-0.0542	-1.0456	-0.0175	-0.9213	-0.0343	12.2084	-18.0095	-0.9568	-0.1636	-0.9968	-0.1348	
   660	-0.4450	 0.1264	-0.0004	 0.0000	-0.8475	-0.0825	-1.0673	-0.0309	-0.9558	-0.0289	 7.7037	-11.3645	-0.9776	-0.1631	-1.0041	-0.1392	
   661	-0.4130	 0.0793	-0.0004	 0.0000	-0.8684	-0.0820	-1.0545	-0.0498	-0.9911	-0.0374	 7.7037	-11.3645	-0.9921	-0.1721	-1.0249	-0.1388	
   662	-0.5630	 0.1338	-0.0004	 0.0000	-0.9029	-0.0765	-1.1026	-0.0394	-1.0264	-0.0458	15.4078	-22.7290	-1.0202	-0.1761	-1.0458	-0.1383	
   663	-0.5310	 0.0866	-0.0004	 0.0000	-0.9246	-0.0900	-1.1443	-0.0384	-1.0264	-0.0458	12.2084	-18.0095	-1.0483	-0.1800	-1.0739	-0.1423	
   664	-0.6626	 0.0990	-0.0004	 0.0000	-0.9327	-0.1084	-1.1724	-0.0424	-1.0545	-0.0498	12.2084	-18.0095	-1.0692	-0.1796	-1.0811	-0.1467	
   665	-0.6626	 0.0990	-0.0004	 0.0000	-0.9671	-0.1029	-1.2205	-0.0320	-1.0545	-0.0498	 7.7037	-11.3645	-1.0836	-0.1885	-1.0948	-0.1418	
   666	-0.8125	 0.1536	-0.0004	 0.0000	-0.9671	-0.1029	-1.1724	-0.0424	-1.0136	-0.0647	-0.0004	 0.0000	-1.0972	-0.1836	-1.0948	-0.1418	
   667	-0.5630	 0.1338	-0.0004	 0.0000	-0.9671	-0.1029	-1.1315	-0.0573	-1.0264	-0.0458	-0.0004	 0.0000	-1.0900	-0.1791	-1.0875	-0.1373	
   668	-0.5630	 0.1338	-0.0004	 0.0000	-0.9054	-0.1183	-1.0481	-0.0592	-0.9992	-0.0558	-0.0004	 0.0000	-1.0755	-0.1701	-1.0522	-0.1288	
   669	-0.4450	 0.1264	-0.0004	 0.0000	-0.8901	-0.0954	-0.9847	-0.0468	-0.9510	-0.0662	-0.0004	 0.0000	-1.0475	-0.1661	-1.0241	-0.1248	
   670	-0.3135	 0.1141	-0.0004	 0.0000	-0.8475	-0.0825	-0.8795	-0.0353	-0.9021	-0.0627	 7.7037	-11.3645	-1.0121	-0.1577	-0.9824	-0.1258	
   671	-0.4770	 0.1736	-0.0004	 0.0000	-0.8258	-0.0690	-0.8442	-0.0268	-0.8795	-0.0353	 7.7037	-11.3645	-0.9768	-0.1492	-0.9407	-0.1268	
   672	-0.4450	 0.1264	-0.0004	 0.0000	-0.7914	-0.0745	-0.8089	-0.0183	-0.8033	-0.0417	-0.0004	 0.0000	-0.9279	-0.1457	-0.9053	-0.1183	
   673	-0.4450	 0.1264	-0.0004	 0.0000	-0.8042	-0.0556	-0.8217	 0.0005	-0.7680	-0.0333	-0.0004	 0.0000	-0.8861	-0.1467	-0.8772	-0.1143	
   674	-0.4770	 0.1736	-0.0004	 0.0000	-0.7488	-0.0615	-0.7936	 0.0045	-0.7744	-0.0238	 7.7037	-11.3645	-0.8717	-0.1377	-0.8836	-0.1049	
   675	-0.6270	 0.2282	-0.0004	 0.0000	-0.7079	-0.0764	-0.7936	 0.0045	-0.7744	-0.0238	 7.7037	-11.3645	-0.8508	-0.1382	-0.8628	-0.1054	
   676	-0.4770	 0.1736	-0.0004	 0.0000	-0.6934	-0.0675	-0.7391	-0.0153	-0.7744	-0.0238	15.4078	-22.7290	-0.8436	-0.1337	-0.8628	-0.1054	
   677	-0.3455	 0.1613	-0.0004	 0.0000	-0.6245	-0.0784	-0.6492	-0.0267	-0.7471	-0.0337	15.4078	-22.7290	-0.8363	-0.1292	-0.8492	-0.1103	
   678	-0.4450	 0.1264	-0.0004	 0.0000	-0.6181	-0.0878	-0.6973	-0.0163	-0.7407	-0.0432	15.4078	-22.7290	-0.8227	-0.1342	-0.8628	-0.1054	
   679	-0.4450	 0.1264	-0.0004	 0.0000	-0.6245	-0.0784	-0.7519	 0.0036	-0.6790	-0.0586	15.4078	-22.7290	-0.8155	-0.1297	-0.8492	-0.1103	
   680	-0.5630	 0.1338	-0.0004	 0.0000	-0.6590	-0.0729	-0.7808	-0.0144	-0.6790	-0.0586	12.2084	-18.0095	-0.8019	-0.1347	-0.8556	-0.1009	
   681	-0.5950	 0.1810	-0.0004	 0.0000	-0.6998	-0.0580	-0.8089	-0.0183	-0.6645	-0.0496	 7.7037	-11.3645	-0.7810	-0.1352	-0.8556	-0.1009	
   682	-0.6270	 0.2282	-0.0004	 0.0000	-0.6590	-0.0729	-0.8089	-0.0183	-0.6918	-0.0397	 7.7037	-11.3645	-0.7874	-0.1257	-0.8483	-0.0964	
   683	-0.5090	 0.2208	-0.0004	 0.0000	-0.6373	-0.0595	-0.7808	-0.0144	-0.7191	-0.0297	12.2084	-18.0095	-0.7874	-0.1257	-0.8556	-0.1009	
   684	-0.3775	 0.2085	-0.0004	 0.0000	-0.6028	-0.0649	-0.7519	 0.0036	-0.7255	-0.0203	12.2084	-18.0095	-0.7738	-0.1307	-0.8419	-0.1058	
   685	-0.3775	 0.2085	-0.0004	 0.0000	-0.6028	-0.0649	-0.7519	 0.0036	-0.7383	-0.0014	12.2084	-18.0095	-0.7738	-0.1307	-0.8419	-0.1058	
   686	-0.3455	 0.1613	-0.0004	 0.0000	-0.5755	-0.0749	-0.7519	 0.0036	-0.7110	-0.0114	12.2084	-18.0095	-0.7601	-0.1357	-0.8419	-0.1058	
   687	-0.4770	 0.1736	-0.0004	 0.0000	-0.6373	-0.0595	-0.7936	 0.0045	-0.7174	-0.0019	12.2084	-18.0095	-0.7601	-0.1357	-0.8419	-0.1058	
   688	-0.5090	 0.2208	-0.0004	 0.0000	-0.6245	-0.0784	-0.7808	-0.0144	-0.7110	-0.0114	12.2084	-18.0095	-0.7601	-0.1357	-0.8419	-0.1058	
   689	-0.5090	 0.2208	-0.0004	 0.0000	-0.5836	-0.0933	-0.8089	-0.0183	-0.7383	-0.0014	12.2084	-18.0095	-0.7601	-0.1357	-0.8556	-0.1009	
   690	-0.6270	 0.2282	-0.0004	 0.0000	-0.5836	-0.0933	-0.8089	-0.0183	-0.7791	 0.0135	12.2084	-18.0095	-0.7738	-0.1307	-0.8692	-0.0959	
   691	-0.6590	 0.2754	-0.0004	 0.0000	-0.6181	-0.0878	-0.8089	-0.0183	-0.7383	-0.0014	 7.7037	-11.3645	-0.7674	-0.1401	-0.8692	-0.0959	
   692	-0.5950	 0.1810	-0.0004	 0.0000	-0.6526	-0.0824	-0.8570	-0.0079	-0.7383	-0.0014	 7.7037	-11.3645	-0.7810	-0.1352	-0.8900	-0.0954	
   693	-0.7265	 0.1934	-0.0004	 0.0000	-0.6934	-0.0675	-0.9115	 0.0119	-0.7383	-0.0014	 7.7037	-11.3645	-0.7882	-0.1396	-0.9037	-0.0905	
   694	-0.6945	 0.1462	-0.0004	 0.0000	-0.7079	-0.0764	-0.8987	-0.0070	-0.7663	-0.0054	 7.7037	-11.3645	-0.8091	-0.1392	-0.9109	-0.0950	
   695	-0.6945	 0.1462	-0.0004	 0.0000	-0.7424	-0.0710	-0.9405	-0.0060	-0.7872	-0.0049	12.2084	-18.0095	-0.8227	-0.1342	-0.9245	-0.0900	
   696	-0.7265	 0.1934	-0.0004	 0.0000	-0.7424	-0.0710	-0.9749	-0.0006	-0.7744	-0.0238	12.2084	-18.0095	-0.8299	-0.1387	-0.9181	-0.0994	
   697	-0.7585	 0.2406	-0.0004	 0.0000	-0.7424	-0.0710	-0.9341	-0.0154	-0.7953	-0.0233	12.2084	-18.0095	-0.8436	-0.1337	-0.9254	-0.1039	
   698	-0.6270	 0.2282	-0.0004	 0.0000	-0.7079	-0.0764	-0.9405	-0.0060	-0.7825	-0.0422	12.2084	-18.0095	-0.8644	-0.1332	-0.9326	-0.1084	
   699	-0.5950	 0.1810	-0.0004	 0.0000	-0.7616	-0.0427	-0.9749	-0.0006	-0.7825	-0.0422	15.4078	-22.7290	-0.8717	-0.1377	-0.9398	-0.1129	
   700	-0.5950	 0.1810	-0.0004	 0.0000	-0.8025	-0.0278	-0.9493	-0.0383	-0.8442	-0.0268	17.8841	-26.3819	-0.8925	-0.1372	-0.9407	-0.1268	
   701	-0.8445	 0.2008	-0.0004	 0.0000	-0.8514	-0.0313	-1.0456	-0.0175	-0.8314	-0.0457	17.8841	-26.3819	-0.8998	-0.1417	-0.9543	-0.1218	
   702	-0.6945	 0.1462	-0.0004	 0.0000	-0.8731	-0.0447	-1.1346	 0.0078	-0.8442	-0.0268	15.4078	-22.7290	-0.8934	-0.1511	-0.9543	-0.1218	
   703	-0.5630	 0.1338	-0.0004	 0.0000	-0.7914	-0.0745	-1.0801	-0.0120	-0.8587	-0.0358	15.4078	-22.7290	-0.9206	-0.1412	-0.9679	-0.1169	
   704	-0.5950	 0.1810	-0.0004	 0.0000	-0.7914	-0.0745	-1.1346	 0.0078	-0.8795	-0.0353	15.4078	-22.7290	-0.9215	-0.1551	-0.9752	-0.1213	
   705	-0.5630	 0.1338	-0.0004	 0.0000	-0.7914	-0.0745	-1.1346	 0.0078	-0.9213	-0.0343	15.4078	-22.7290	-0.9423	-0.1546	-0.9888	-0.1164	
   706	-0.5630	 0.1338	-0.0004	 0.0000	-0.7914	-0.0745	-1.0801	-0.0120	-0.9558	-0.0289	17.8841	-26.3819	-0.9632	-0.1542	-1.0096	-0.1159	
   707	-0.6945	 0.1462	-0.0004	 0.0000	-0.8067	-0.0974	-1.1090	-0.0299	-0.9830	-0.0190	15.4078	-22.7290	-0.9776	-0.1631	-1.0241	-0.1248	
   708	-0.6626	 0.0990	-0.0004	 0.0000	-0.8411	-0.0919	-1.1571	-0.0195	-0.9830	-0.0190	12.2084	-18.0095	-0.9913	-0.1581	-1.0177	-0.1343	
   709	-0.5310	 0.0866	-0.0004	 0.0000	-0.8411	-0.0919	-1.1571	-0.0195	-0.9830	-0.0190	12.2084	-18.0095	-0.9921	-0.1721	-1.0313	-0.1293	
   710	-0.4990	 0.0394	-0.0004	 0.0000	-0.8492	-0.1103	-1.1724	-0.0424	-0.9830	-0.0190	 7.7037	-11.3645	-1.0130	-0.1716	-1.0522	-0.1288	
   711	-0.6626	 0.0990	-0.0004	 0.0000	-0.8837	-0.1049	-1.1660	-0.0518	-1.0247	-0.0180	 7.7037	-11.3645	-1.0202	-0.1761	-1.0394	-0.1477	
   712	-0.8125	 0.1536	-0.0004	 0.0000	-0.9246	-0.0900	-1.1532	-0.0707	-0.9911	-0.0374	-0.0004	 0.0000	-1.0411	-0.1756	-1.0530	-0.1427	
   713	-0.8125	 0.1536	-0.0004	 0.0000	-0.9246	-0.0900	-1.1660	-0.0518	-1.0056	-0.0463	-0.0004	 0.0000	-1.0619	-0.1751	-1.0875	-0.1373	
   714	-0.9624	 0.2082	-0.0004	 0.0000	-0.9118	-0.1089	-1.2078	-0.0509	-0.9992	-0.0558	-0.0004	 0.0000	-1.0764	-0.1840	-1.0948	-0.1418	
   715	-1.2303	 0.2701	-0.0004	 0.0000	-0.9816	-0.1119	-1.2776	-0.0539	-1.0136	-0.0647	-0.0004	 0.0000	-1.0972	-0.1836	-1.1092	-0.1507	
   716	-0.9624	 0.2082	-0.0004	 0.0000	-1.0225	-0.0970	-1.2303	-0.0782	-1.0136	-0.0647	-0.0004	 0.0000	-1.1181	-0.1831	-1.1092	-0.1507	
   717	-0.9944	 0.2553	-0.0004	 0.0000	-1.0506	-0.1010	-1.2584	-0.0822	-1.0353	-0.0781	-0.0004	 0.0000	-1.1253	-0.1875	-1.1028	-0.1602	
   718	-0.9944	 0.2553	-0.0004	 0.0000	-1.0779	-0.0911	-1.2584	-0.0822	-1.0353	-0.0781	-0.0004	 0.0000	-1.1253	-0.1875	-1.1092	-0.1507	
   719	-0.8445	 0.2008	-0.0004	 0.0000	-1.0570	-0.0915	-1.2495	-0.0499	-1.0626	-0.0682	 7.7037	-11.3645	-1.1181	-0.1831	-1.0884	-0.1512	
   720	-0.8445	 0.2008	-0.0004	 0.0000	-0.9944	-0.0930	-1.1315	-0.0573	-1.0264	-0.0458	 7.7037	-11.3645	-1.0900	-0.1791	-1.0603	-0.1472	
   721	-0.7265	 0.1934	-0.0004	 0.0000	-0.9927	-0.0652	-1.0136	-0.0647	-1.0183	-0.0274	 7.7037	-11.3645	-1.0547	-0.1706	-1.0386	-0.1338	
   722	-0.7585	 0.2406	-0.0004	 0.0000	-0.9093	-0.0671	-0.9493	-0.0383	-0.9894	-0.0095	-0.0004	 0.0000	-1.0194	-0.1621	-0.9968	-0.1348	
   723	-0.7585	 0.2406	-0.0004	 0.0000	-0.8748	-0.0726	-0.9341	-0.0154	-0.9260	 0.0029	-0.0004	 0.0000	-0.9632	-0.1542	-0.9479	-0.1313	
   724	-0.7905	 0.2878	-0.0004	 0.0000	-0.8603	-0.0636	-0.9405	-0.0060	-0.8907	 0.0114	-0.0004	 0.0000	-0.9279	-0.1457	-0.9126	-0.1228	
   725	-0.5090	 0.2208	-0.0004	 0.0000	-0.7850	-0.0839	-0.9115	 0.0119	-0.8289	-0.0040	-0.0004	 0.0000	-0.8925	-0.1372	-0.8917	-0.1233	
   726	-0.5410	 0.2680	-0.0004	 0.0000	-0.7424	-0.0710	-0.8634	 0.0015	-0.8145	 0.0050	-0.0004	 0.0000	-0.8781	-0.1283	-0.8772	-0.1143	
   727	-0.3455	 0.1613	-0.0004	 0.0000	-0.7207	-0.0576	-0.8345	 0.0194	-0.7872	-0.0049	-0.0004	 0.0000	-0.8436	-0.1337	-0.8564	-0.1148	
   728	-0.3455	 0.1613	-0.0004	 0.0000	-0.7062	-0.0486	-0.8473	 0.0383	-0.7255	-0.0203	 7.7037	-11.3645	-0.8291	-0.1248	-0.8492	-0.1103	
   729	-0.3455	 0.1613	-0.0004	 0.0000	-0.7062	-0.0486	-0.8064	 0.0234	-0.7110	-0.0114	 7.7037	-11.3645	-0.8082	-0.1252	-0.8355	-0.1153	
   730	-0.4770	 0.1736	-0.0004	 0.0000	-0.7062	-0.0486	-0.8345	 0.0194	-0.6565	-0.0312	-0.0004	 0.0000	-0.7874	-0.1257	-0.8419	-0.1058	
   731	-0.4770	 0.1736	-0.0004	 0.0000	-0.7062	-0.0486	-0.8345	 0.0194	-0.6565	-0.0312	-0.0004	 0.0000	-0.7802	-0.1213	-0.8419	-0.1058	
   732	-0.4770	 0.1736	-0.0004	 0.0000	-0.7207	-0.0576	-0.8762	 0.0204	-0.6356	-0.0317	-0.0004	 0.0000	-0.7665	-0.1262	-0.8347	-0.1014	
   733	-0.5090	 0.2208	-0.0004	 0.0000	-0.7207	-0.0576	-0.8634	 0.0015	-0.6901	-0.0118	12.2084	-18.0095	-0.7665	-0.1262	-0.8347	-0.1014	
   734	-0.5090	 0.2208	-0.0004	 0.0000	-0.6934	-0.0675	-0.8634	 0.0015	-0.6901	-0.0118	12.2084	-18.0095	-0.7593	-0.1217	-0.8211	-0.1063	
   735	-0.3775	 0.2085	-0.0004	 0.0000	-0.6590	-0.0729	-0.7936	 0.0045	-0.7029	 0.0070	12.2084	-18.0095	-0.7457	-0.1267	-0.8138	-0.1019	
   736	-0.3775	 0.2085	-0.0004	 0.0000	-0.6245	-0.0784	-0.7936	 0.0045	-0.6821	 0.0066	12.2084	-18.0095	-0.7384	-0.1222	-0.8138	-0.1019	
   737	-0.3775	 0.2085	-0.0004	 0.0000	-0.5964	-0.0744	-0.7391	-0.0153	-0.6949	 0.0254	12.2084	-18.0095	-0.7248	-0.1272	-0.8002	-0.1068	
   738	-0.3455	 0.1613	-0.0004	 0.0000	-0.5964	-0.0744	-0.7263	-0.0342	-0.6676	 0.0155	 7.7037	-11.3645	-0.7176	-0.1227	-0.8002	-0.1068	
   739	-0.3135	 0.1141	-0.0004	 0.0000	-0.6654	-0.0635	-0.7071	-0.0625	-0.6267	 0.0006	 7.7037	-11.3645	-0.7103	-0.1182	-0.8002	-0.1068	
   740	-0.3135	 0.1141	-0.0004	 0.0000	-0.6654	-0.0635	-0.7488	-0.0616	-0.6676	 0.0155	12.2084	-18.0095	-0.7240	-0.1133	-0.8074	-0.1113	
   741	-0.3135	 0.1141	-0.0004	 0.0000	-0.6373	-0.0595	-0.7769	-0.0655	-0.6821	 0.0066	12.2084	-18.0095	-0.7103	-0.1182	-0.8211	-0.1063	
   742	-0.4770	 0.1736	-0.0004	 0.0000	-0.6373	-0.0595	-0.8442	-0.0268	-0.6757	-0.0029	12.2084	-18.0095	-0.7240	-0.1133	-0.8347	-0.1014	
   743	-0.6270	 0.2282	-0.0004	 0.0000	-0.5964	-0.0744	-0.8442	-0.0268	-0.6484	-0.0128	12.2084	-18.0095	-0.7240	-0.1133	-0.8347	-0.1014	
   744	-0.6270	 0.2282	-0.0004	 0.0000	-0.6028	-0.0649	-0.8570	-0.0079	-0.6356	-0.0317	12.2084	-18.0095	-0.7376	-0.1083	-0.8483	-0.0964	
   745	-0.4770	 0.1736	-0.0004	 0.0000	-0.5883	-0.0560	-0.8089	-0.0183	-0.6629	-0.0218	12.2084	-18.0095	-0.7312	-0.1177	-0.8419	-0.1058	
   746	-0.5950	 0.1810	-0.0004	 0.0000	-0.6245	-0.0784	-0.8987	-0.0070	-0.6837	-0.0213	12.2084	-18.0095	-0.7448	-0.1128	-0.8419	-0.1058	
   747	-0.5950	 0.1810	-0.0004	 0.0000	-0.6590	-0.0729	-0.9532	 0.0129	-0.6629	-0.0218	-0.0004	 0.0000	-0.7384	-0.1222	-0.8419	-0.1058	
   748	-0.5950	 0.1810	-0.0004	 0.0000	-0.6181	-0.0878	-0.9749	-0.0006	-0.6837	-0.0213	 7.7037	-11.3645	-0.7521	-0.1173	-0.8355	-0.1153	
   749	-0.4450	 0.1264	-0.0004	 0.0000	-0.6590	-0.0729	-0.9749	-0.0006	-0.7383	-0.0014	 7.7037	-11.3645	-0.7593	-0.1217	-0.8355	-0.1153	
   750	-0.3135	 0.1141	-0.0004	 0.0000	-0.6181	-0.0878	-0.9405	-0.0060	-0.7663	-0.0054	12.2084	-18.0095	-0.7665	-0.1262	-0.8564	-0.1148	
   751	-0.4770	 0.1736	-0.0004	 0.0000	-0.6181	-0.0878	-0.9749	-0.0006	-0.7663	-0.0054	12.2084	-18.0095	-0.7738	-0.1307	-0.8700	-0.1098	
   752	-0.4770	 0.1736	-0.0004	 0.0000	-0.6526	-0.0824	-0.9621	-0.0194	-0.7599	-0.0149	12.2084	-18.0095	-0.7874	-0.1257	-0.8772	-0.1143	
   753	-0.4770	 0.1736	-0.0004	 0.0000	-0.6806	-0.0864	-1.0039	-0.0185	-0.7663	-0.0054	 7.7037	-11.3645	-0.7874	-0.1257	-0.8836	-0.1049	
   754	-0.5950	 0.1810	-0.0004	 0.0000	-0.7424	-0.0710	-1.0801	-0.0120	-0.7872	-0.0049	12.2084	-18.0095	-0.8082	-0.1252	-0.8909	-0.1094	
   755	-0.7265	 0.1934	-0.0004	 0.0000	-0.7424	-0.0710	-1.1346	 0.0078	-0.7953	-0.0233	12.2084	-18.0095	-0.8219	-0.1203	-0.8981	-0.1138	
   756	-0.6945	 0.1462	-0.0004	 0.0000	-0.7769	-0.0655	-1.1218	-0.0111	-0.8097	-0.0323	12.2084	-18.0095	-0.8363	-0.1292	-0.9117	-0.1089	
   757	-0.5630	 0.1338	-0.0004	 0.0000	-0.7769	-0.0655	-1.0673	-0.0309	-0.8225	-0.0134	 7.7037	-11.3645	-0.8500	-0.1243	-0.9053	-0.1183	
   758	-0.5310	 0.0866	-0.0004	 0.0000	-0.7914	-0.0745	-1.1090	-0.0299	-0.8442	-0.0268	12.2084	-18.0095	-0.8508	-0.1382	-0.9398	-0.1129	
   759	-0.6945	 0.1462	-0.0004	 0.0000	-0.8667	-0.0542	-1.1635	-0.0101	-0.8314	-0.0457	12.2084	-18.0095	-0.8717	-0.1377	-0.9471	-0.1173	
   760	-0.6945	 0.1462	-0.0004	 0.0000	-0.9093	-0.0671	-1.2397	-0.0037	-0.8250	-0.0552	 7.7037	-11.3645	-0.8789	-0.1422	-0.9471	-0.1173	
   761	-0.7265	 0.1934	-0.0004	 0.0000	-0.9093	-0.0671	-1.2397	-0.0037	-0.8668	-0.0542	-0.0004	 0.0000	-0.8998	-0.1417	-0.9679	-0.1169	
   762	-0.5950	 0.1810	-0.0004	 0.0000	-0.8748	-0.0726	-1.2269	-0.0226	-0.8876	-0.0537	 7.7037	-11.3645	-0.9206	-0.1412	-0.9752	-0.1213	
   763	-0.6270	 0.2282	-0.0004	 0.0000	-0.8748	-0.0726	-1.1443	-0.0384	-0.9021	-0.0627	 7.7037	-11.3645	-0.9351	-0.1502	-0.9824	-0.1258	
   764	-0.7585	 0.2406	-0.0004	 0.0000	-0.9093	-0.0671	-1.1315	-0.0573	-0.9021	-0.0627	 7.7037	-11.3645	-0.9559	-0.1497	-0.9968	-0.1348	
   765	-0.7265	 0.1934	-0.0004	 0.0000	-0.9438	-0.0617	-1.1315	-0.0573	-0.9430	-0.0478	-0.0004	 0.0000	-0.9768	-0.1492	-1.0177	-0.1343	
   766	-0.8125	 0.1536	-0.0004	 0.0000	-0.9799	-0.0840	-1.1950	-0.0698	-0.9702	-0.0378	-0.0004	 0.0000	-0.9840	-0.1537	-1.0113	-0.1437	
   767	-0.8125	 0.1536	-0.0004	 0.0000	-1.0353	-0.0781	-1.1822	-0.0886	-0.9975	-0.0279	-0.0004	 0.0000	-0.9913	-0.1581	-1.0113	-0.1437	
   768	-0.8125	 0.1536	-0.0004	 0.0000	-1.0161	-0.1064	-1.2584	-0.0822	-1.0183	-0.0274	-0.0004	 0.0000	-1.0121	-0.1577	-1.0322	-0.1432	
   769	-0.9624	 0.2082	-0.0004	 0.0000	-1.0161	-0.1064	-1.2584	-0.0822	-1.0183	-0.0274	-0.0004	 0.0000	-1.0194	-0.1621	-1.0322	-0.1432	
   770	-0.6945	 0.1462	-0.0004	 0.0000	-0.9671	-0.1029	-1.1950	-0.0698	-1.0183	-0.0274	 7.7037	-11.3645	-1.0258	-0.1527	-1.0386	-0.1338	
   771	-0.8765	 0.2480	-0.0004	 0.0000	-0.9327	-0.1084	-1.1251	-0.0667	-0.9622	-0.0195	-0.0004	 0.0000	-0.9977	-0.1487	-1.0105	-0.1298	
   772	-1.0264	 0.3025	-0.0004	 0.0000	-0.9118	-0.1089	-1.0898	-0.0583	-0.9068	-0.0254	-0.0004	 0.0000	-0.9623	-0.1402	-0.9752	-0.1213	
   773	-1.1123	 0.2627	-0.0004	 0.0000	-0.9118	-0.1089	-1.1026	-0.0394	-0.8506	-0.0174	-0.0004	 0.0000	-0.9062	-0.1323	-0.9190	-0.1133	
   774	-0.8445	 0.2008	-0.0004	 0.0000	-0.8901	-0.0954	-1.0392	-0.0269	-0.7953	-0.0233	-0.0004	 0.0000	-0.8572	-0.1288	-0.8836	-0.1049	
   775	-0.7585	 0.2406	-0.0004	 0.0000	-0.8067	-0.0974	-1.0295	 0.0193	-0.7599	-0.0149	-0.0004	 0.0000	-0.8283	-0.1108	-0.8419	-0.1058	
   776	-0.7585	 0.2406	-0.0004	 0.0000	-0.7577	-0.0939	-0.9941	 0.0278	-0.7255	-0.0203	-0.0004	 0.0000	-0.7793	-0.1073	-0.7938	-0.1163	
   777	-0.4770	 0.1736	-0.0004	 0.0000	-0.6806	-0.0864	-0.8890	 0.0393	-0.7110	-0.0114	12.2084	-18.0095	-0.7376	-0.1083	-0.7793	-0.1073	
   778	-0.5090	 0.2208	-0.0004	 0.0000	-0.6590	-0.0729	-0.8128	 0.0328	-0.6757	-0.0029	12.2084	-18.0095	-0.7023	-0.0998	-0.7585	-0.1078	
   779	-0.6270	 0.2282	-0.0004	 0.0000	-0.6245	-0.0784	-0.8128	 0.0328	-0.6740	 0.0249	 7.7037	-11.3645	-0.6606	-0.1008	-0.7304	-0.1038	
   780	-0.6270	 0.2282	-0.0004	 0.0000	-0.6028	-0.0649	-0.7583	 0.0130	-0.6459	 0.0289	 7.7037	-11.3645	-0.6252	-0.0923	-0.7159	-0.0948	
   781	-0.5090	 0.2208	-0.0004	 0.0000	-0.5883	-0.0560	-0.7711	 0.0319	-0.6250	 0.0285	-0.0004	 0.0000	-0.6044	-0.0928	-0.7015	-0.0859	
   782	-0.3455	 0.1613	-0.0004	 0.0000	-0.5755	-0.0749	-0.8064	 0.0234	-0.5978	 0.0185	-0.0004	 0.0000	-0.5899	-0.0839	-0.6942	-0.0814	
   783	-0.3775	 0.2085	-0.0004	 0.0000	-0.5474	-0.0709	-0.8064	 0.0234	-0.5833	 0.0275	 7.7037	-11.3645	-0.5690	-0.0844	-0.6870	-0.0769	
   784	-0.3775	 0.2085	-0.0004	 0.0000	-0.5538	-0.0614	-0.8064	 0.0234	-0.5424	 0.0126	 7.7037	-11.3645	-0.5618	-0.0799	-0.6734	-0.0819	
   785	-0.3775	 0.2085	-0.0004	 0.0000	-0.5129	-0.0763	-0.7519	 0.0036	-0.5216	 0.0121	 7.7037	-11.3645	-0.5482	-0.0848	-0.6734	-0.0819	
   786	-0.3455	 0.1613	-0.0004	 0.0000	-0.5193	-0.0669	-0.7519	 0.0036	-0.5071	 0.0211	 7.7037	-11.3645	-0.5273	-0.0853	-0.6597	-0.0869	
   787	-0.3455	 0.1613	-0.0004	 0.0000	-0.5321	-0.0480	-0.7583	 0.0130	-0.4854	 0.0345	 7.7037	-11.3645	-0.5201	-0.0808	-0.6525	-0.0824	
   788	-0.3135	 0.1141	-0.0004	 0.0000	-0.5602	-0.0520	-0.8064	 0.0234	-0.4918	 0.0439	-0.0004	 0.0000	-0.5129	-0.0764	-0.6589	-0.0729	
   789	-0.3135	 0.1141	-0.0004	 0.0000	-0.5193	-0.0669	-0.8064	 0.0234	-0.4918	 0.0439	-0.0004	 0.0000	-0.4920	-0.0769	-0.6453	-0.0779	
   790	-0.3455	 0.1613	-0.0004	 0.0000	-0.5193	-0.0669	-0.8345	 0.0194	-0.4918	 0.0439	-0.0004	 0.0000	-0.4848	-0.0724	-0.6453	-0.0779	
   791	-0.3455	 0.1613	-0.0004	 0.0000	-0.5193	-0.0669	-0.8064	 0.0234	-0.4918	 0.0439	 7.7037	-11.3645	-0.4848	-0.0724	-0.6453	-0.0779	
   792	-0.3775	 0.2085	-0.0004	 0.0000	-0.4921	-0.0768	-0.7519	 0.0036	-0.5263	 0.0494	12.2084	-18.0095	-0.4848	-0.0724	-0.6589	-0.0729	
   793	-0.2595	 0.2011	-0.0004	 0.0000	-0.4640	-0.0728	-0.7519	 0.0036	-0.4854	 0.0345	12.2084	-18.0095	-0.4848	-0.0724	-0.6589	-0.0729	
   794	-0.2275	 0.1539	-0.0004	 0.0000	-0.4640	-0.0728	-0.7519	 0.0036	-0.4854	 0.0345	12.2084	-18.0095	-0.4848	-0.0724	-0.6725	-0.0680	
   795	-0.1955	 0.1067	-0.0004	 0.0000	-0.5049	-0.0579	-0.7936	 0.0045	-0.4726	 0.0156	12.2084	-18.0095	-0.4984	-0.0674	-0.6661	-0.0774	
   796	-0.1955	 0.1067	-0.0004	 0.0000	-0.5113	-0.0485	-0.8345	 0.0194	-0.4854	 0.0345	-0.0004	 0.0000	-0.4984	-0.0674	-0.6725	-0.0680	
   797	-0.1955	 0.1067	-0.0004	 0.0000	-0.5113	-0.0485	-0.8217	 0.0005	-0.4726	 0.0156	-0.0004	 0.0000	-0.4920	-0.0769	-0.6661	-0.0774	
   798	-0.1955	 0.1067	-0.0004	 0.0000	-0.5321	-0.0480	-0.8634	 0.0015	-0.4662	 0.0062	 7.7037	-11.3645	-0.4920	-0.0769	-0.6798	-0.0725	
   799	-0.2275	 0.1539	-0.0004	 0.0000	-0.5113	-0.0485	-0.7680	-0.0332	-0.5071	 0.0211	 7.7037	-11.3645	-0.4992	-0.0813	-0.6934	-0.0675	
   800	-0.2275	 0.1539	-0.0004	 0.0000	-0.5049	-0.0579	-0.7680	-0.0332	-0.5071	 0.0211	 7.7037	-11.3645	-0.5065	-0.0858	-0.7006	-0.0720	
   801	-0.3775	 0.2085	-0.0004	 0.0000	-0.5193	-0.0669	-0.7616	-0.0427	-0.5216	 0.0121	12.2084	-18.0095	-0.5065	-0.0858	-0.7143	-0.0670	
   802	-0.3775	 0.2085	-0.0004	 0.0000	-0.5602	-0.0520	-0.7897	-0.0467	-0.5216	 0.0121	12.2084	-18.0095	-0.5137	-0.0903	-0.7215	-0.0715	
   803	-0.3775	 0.2085	-0.0004	 0.0000	-0.5538	-0.0614	-0.8314	-0.0457	-0.5705	 0.0086	12.2084	-18.0095	-0.5345	-0.0898	-0.7487	-0.0616	
   804	-0.3775	 0.2085	-0.0004	 0.0000	-0.5883	-0.0560	-0.8795	-0.0353	-0.6250	 0.0285	12.2084	-18.0095	-0.5345	-0.0898	-0.7423	-0.0710	
   805	-0.3775	 0.2085	-0.0004	 0.0000	-0.5346	-0.0898	-0.9213	-0.0343	-0.5978	 0.0185	 7.7037	-11.3645	-0.5482	-0.0848	-0.7560	-0.0660	
   806	-0.3775	 0.2085	-0.0004	 0.0000	-0.5755	-0.0749	-0.9493	-0.0383	-0.6250	 0.0285	 7.7037	-11.3645	-0.5690	-0.0844	-0.7632	-0.0705	
   807	-0.4770	 0.1736	-0.0004	 0.0000	-0.5836	-0.0933	-0.9911	-0.0373	-0.6250	 0.0285	12.2084	-18.0095	-0.5763	-0.0888	-0.7704	-0.0750	
   808	-0.6270	 0.2282	-0.0004	 0.0000	-0.6181	-0.0878	-1.0456	-0.0175	-0.6459	 0.0289	 7.7037	-11.3645	-0.5835	-0.0933	-0.7777	-0.0795	
   809	-0.7905	 0.2878	-0.0004	 0.0000	-0.6526	-0.0824	-1.0801	-0.0120	-0.6186	 0.0190	-0.0004	 0.0000	-0.5907	-0.0978	-0.7777	-0.0795	
   810	-0.7905	 0.2878	-0.0004	 0.0000	-0.6806	-0.0864	-1.0673	-0.0309	-0.6459	 0.0289	-0.0004	 0.0000	-0.6116	-0.0973	-0.7849	-0.0839	
   811	-0.7585	 0.2406	-0.0004	 0.0000	-0.7015	-0.0859	-1.1635	-0.0101	-0.6331	 0.0101	-0.0004	 0.0000	-0.6188	-0.1018	-0.7849	-0.0839	
   812	-0.9085	 0.2952	-0.0004	 0.0000	-0.7360	-0.0804	-1.1571	-0.0195	-0.6821	 0.0066	12.2084	-18.0095	-0.6469	-0.1058	-0.8130	-0.0879	
   813	-0.7905	 0.2878	-0.0004	 0.0000	-0.7232	-0.0993	-1.1571	-0.0195	-0.6757	-0.0029	12.2084	-18.0095	-0.6678	-0.1053	-0.8202	-0.0924	
   814	-0.7905	 0.2878	-0.0004	 0.0000	-0.7232	-0.0993	-1.1571	-0.0195	-0.6901	-0.0118	12.2084	-18.0095	-0.6822	-0.1142	-0.8411	-0.0919	
   815	-0.7905	 0.2878	-0.0004	 0.0000	-0.7577	-0.0939	-1.1443	-0.0384	-0.6982	-0.0302	 7.7037	-11.3645	-0.7031	-0.1138	-0.8620	-0.0914	
   816	-0.7905	 0.2878	-0.0004	 0.0000	-0.7658	-0.1122	-1.1724	-0.0424	-0.6982	-0.0302	-0.0004	 0.0000	-0.7240	-0.1133	-0.8756	-0.0865	
   817	-0.6590	 0.2754	-0.0004	 0.0000	-0.8003	-0.1068	-1.2078	-0.0509	-0.7744	-0.0238	12.2084	-18.0095	-0.7384	-0.1222	-0.9037	-0.0905	
   818	-0.7905	 0.2878	-0.0004	 0.0000	-0.7658	-0.1122	-1.2078	-0.0509	-0.8097	-0.0323	15.4078	-22.7290	-0.7665	-0.1262	-0.9245	-0.0900	
   819	-0.6590	 0.2754	-0.0004	 0.0000	-0.7658	-0.1122	-1.1532	-0.0707	-0.8225	-0.0134	15.4078	-22.7290	-0.7874	-0.1257	-0.9318	-0.0945	
   820	-0.6270	 0.2282	-0.0004	 0.0000	-0.8003	-0.1068	-1.2078	-0.0509	-0.8442	-0.0268	12.2084	-18.0095	-0.8155	-0.1297	-0.9663	-0.0890	
   821	-0.5950	 0.1810	-0.0004	 0.0000	-0.8684	-0.0820	-1.2495	-0.0499	-0.8859	-0.0259	12.2084	-18.0095	-0.8227	-0.1342	-0.9735	-0.0935	
   822	-0.5630	 0.1338	-0.0004	 0.0000	-0.9029	-0.0765	-1.2495	-0.0499	-0.8587	-0.0358	 7.7037	-11.3645	-0.8363	-0.1292	-0.9599	-0.0985	
   823	-0.7265	 0.1934	-0.0004	 0.0000	-0.9246	-0.0900	-1.2776	-0.0539	-0.8442	-0.0268	-0.0004	 0.0000	-0.8227	-0.1342	-0.9526	-0.0940	
   824	-0.8765	 0.2480	-0.0004	 0.0000	-0.9118	-0.1089	-1.2904	-0.0350	-0.8225	-0.0134	-0.0004	 0.0000	-0.8219	-0.1203	-0.9245	-0.0900	
   825	-0.7585	 0.2406	-0.0004	 0.0000	-0.9246	-0.0900	-1.2751	-0.0122	-0.7936	 0.0045	-0.0004	 0.0000	-0.7802	-0.1213	-0.8828	-0.0910	
   826	-0.7265	 0.1934	-0.0004	 0.0000	-0.8620	-0.0914	-1.2044	 0.0048	-0.7446	 0.0080	-0.0004	 0.0000	-0.7448	-0.1128	-0.8339	-0.0875	
   827	-0.5950	 0.1810	-0.0004	 0.0000	-0.8258	-0.0690	-1.0456	-0.0175	-0.6821	 0.0066	-0.0004	 0.0000	-0.6959	-0.1093	-0.7849	-0.0839	
   828	-0.4770	 0.1736	-0.0004	 0.0000	-0.7833	-0.0561	-0.9341	-0.0154	-0.6058	 0.0001	-0.0004	 0.0000	-0.6533	-0.0963	-0.7568	-0.0800	
   829	-0.4770	 0.1736	-0.0004	 0.0000	-0.7207	-0.0576	-0.8570	-0.0079	-0.5833	 0.0275	-0.0004	 0.0000	-0.6044	-0.0928	-0.7215	-0.0715	
   830	-0.4770	 0.1736	-0.0004	 0.0000	-0.6654	-0.0635	-0.7808	-0.0144	-0.5344	 0.0310	-0.0004	 0.0000	-0.5554	-0.0893	-0.6998	-0.0581	
   831	-0.3135	 0.1141	-0.0004	 0.0000	-0.6028	-0.0649	-0.7519	 0.0036	-0.4773	 0.0529	-0.0004	 0.0000	-0.5065	-0.0858	-0.6717	-0.0541	
   832	-0.3455	 0.1613	-0.0004	 0.0000	-0.5474	-0.0709	-0.7519	 0.0036	-0.4773	 0.0529	-0.0004	 0.0000	-0.4848	-0.0724	-0.6444	-0.0640	
   833	-0.2275	 0.1539	-0.0004	 0.0000	-0.4921	-0.0768	-0.7037	-0.0069	-0.4565	 0.0524	-0.0004	 0.0000	-0.4430	-0.0734	-0.6300	-0.0550	
   834	-0.2275	 0.1539	-0.0004	 0.0000	-0.4857	-0.0862	-0.7583	 0.0130	-0.4693	 0.0713	 7.7037	-11.3645	-0.4358	-0.0689	-0.6300	-0.0550	
   835	-0.2595	 0.2011	-0.0004	 0.0000	-0.4512	-0.0917	-0.7165	 0.0120	-0.4484	 0.0708	 7.7037	-11.3645	-0.4149	-0.0694	-0.6027	-0.0650	
   836	-0.2595	 0.2011	-0.0004	 0.0000	-0.4512	-0.0917	-0.6748	 0.0110	-0.4075	 0.0559	12.2084	-18.0095	-0.3941	-0.0698	-0.6091	-0.0555	
   837	-0.0960	 0.1416	-0.0004	 0.0000	-0.4231	-0.0877	-0.6748	 0.0110	-0.3931	 0.0649	12.2084	-18.0095	-0.3805	-0.0748	-0.5819	-0.0654	
   838	-0.1280	 0.1887	-0.0004	 0.0000	-0.3822	-0.1026	-0.6748	 0.0110	-0.3722	 0.0644	15.4078	-22.7290	-0.3732	-0.0703	-0.5746	-0.0610	
   839	-0.2595	 0.2011	-0.0004	 0.0000	-0.4231	-0.0877	-0.7711	 0.0319	-0.3449	 0.0545	15.4078	-22.7290	-0.3524	-0.0708	-0.5674	-0.0565	
   840	-0.0640	 0.0944	-0.0004	 0.0000	-0.3886	-0.0931	-0.7711	 0.0319	-0.3722	 0.0644	17.8841	-26.3819	-0.3451	-0.0663	-0.5674	-0.0565	
   841	-0.2275	 0.1539	-0.0004	 0.0000	-0.3886	-0.0931	-0.8128	 0.0328	-0.3449	 0.0545	17.8841	-26.3819	-0.3243	-0.0668	-0.5538	-0.0615	
   842	-0.2275	 0.1539	-0.0004	 0.0000	-0.3805	-0.0748	-0.8256	 0.0517	-0.3449	 0.0545	15.4078	-22.7290	-0.3034	-0.0673	-0.5602	-0.0520	
   843	-0.2275	 0.1539	-0.0004	 0.0000	-0.3997	-0.0464	-0.7711	 0.0319	-0.3449	 0.0545	15.4078	-22.7290	-0.2962	-0.0628	-0.5602	-0.0520	
   844	-0.3775	 0.2085	-0.0004	 0.0000	-0.3652	-0.0519	-0.7711	 0.0319	-0.3658	 0.0549	15.4078	-22.7290	-0.2889	-0.0584	-0.5738	-0.0471	
   845	-0.3455	 0.1613	-0.0004	 0.0000	-0.3997	-0.0464	-0.8128	 0.0328	-0.3530	 0.0361	15.4078	-22.7290	-0.2817	-0.0539	-0.5738	-0.0471	
   846	-0.3455	 0.1613	-0.0004	 0.0000	-0.3997	-0.0464	-0.8128	 0.0328	-0.3530	 0.0361	15.4078	-22.7290	-0.2753	-0.0633	-0.5810	-0.0515	
   847	-0.3775	 0.2085	-0.0004	 0.0000	-0.4061	-0.0370	-0.8064	 0.0234	-0.3530	 0.0361	15.4078	-22.7290	-0.2753	-0.0633	-0.5883	-0.0560	
   848	-0.3775	 0.2085	-0.0004	 0.0000	-0.4061	-0.0370	-0.7936	 0.0045	-0.3530	 0.0361	15.4078	-22.7290	-0.2889	-0.0584	-0.5883	-0.0560	
   849	-0.2595	 0.2011	-0.0004	 0.0000	-0.4061	-0.0370	-0.7519	 0.0036	-0.3466	 0.0266	15.4078	-22.7290	-0.2962	-0.0628	-0.5883	-0.0560	
   850	-0.3775	 0.2085	-0.0004	 0.0000	-0.3997	-0.0464	-0.7519	 0.0036	-0.3530	 0.0361	12.2084	-18.0095	-0.2898	-0.0723	-0.6091	-0.0555	
   851	-0.3775	 0.2085	-0.0004	 0.0000	-0.4078	-0.0648	-0.8064	 0.0234	-0.3530	 0.0361	12.2084	-18.0095	-0.3034	-0.0673	-0.6227	-0.0506	
   852	-0.5410	 0.2680	-0.0004	 0.0000	-0.4359	-0.0688	-0.7936	 0.0045	-0.3385	 0.0450	 7.7037	-11.3645	-0.3170	-0.0623	-0.6091	-0.0555	
   853	-0.4095	 0.2557	-0.0004	 0.0000	-0.3950	-0.0837	-0.8064	 0.0234	-0.3658	 0.0549	 7.7037	-11.3645	-0.3106	-0.0718	-0.6091	-0.0555	
   854	-0.5410	 0.2680	-0.0004	 0.0000	-0.4704	-0.0634	-0.9179	 0.0213	-0.3530	 0.0361	 7.7037	-11.3645	-0.3179	-0.0763	-0.6300	-0.0550	
   855	-0.5410	 0.2680	-0.0004	 0.0000	-0.4640	-0.0728	-0.9660	 0.0318	-0.3466	 0.0266	 7.7037	-11.3645	-0.3251	-0.0807	-0.6300	-0.0550	
   856	-0.4095	 0.2557	-0.0004	 0.0000	-0.4359	-0.0688	-0.9724	 0.0412	-0.3739	 0.0365	 7.7037	-11.3645	-0.3323	-0.0852	-0.6236	-0.0645	
   857	-0.3775	 0.2085	-0.0004	 0.0000	-0.4359	-0.0688	-0.9660	 0.0318	-0.4011	 0.0465	 7.7037	-11.3645	-0.3532	-0.0847	-0.6444	-0.0640	
   858	-0.3775	 0.2085	-0.0004	 0.0000	-0.4359	-0.0688	-0.9532	 0.0129	-0.3883	 0.0276	12.2084	-18.0095	-0.3668	-0.0798	-0.6581	-0.0590	
   859	-0.5410	 0.2680	-0.0004	 0.0000	-0.4704	-0.0634	-0.9941	 0.0278	-0.4292	 0.0425	12.2084	-18.0095	-0.3741	-0.0842	-0.6653	-0.0635	
   860	-0.3455	 0.1613	-0.0004	 0.0000	-0.4640	-0.0728	-0.9813	 0.0089	-0.4420	 0.0614	 7.7037	-11.3645	-0.3813	-0.0887	-0.6653	-0.0635	
   861	-0.2275	 0.1539	-0.0004	 0.0000	-0.4640	-0.0728	-0.9813	 0.0089	-0.4501	 0.0430	12.2084	-18.0095	-0.4021	-0.0882	-0.6653	-0.0635	
   862	-0.2275	 0.1539	-0.0004	 0.0000	-0.4512	-0.0917	-1.0295	 0.0193	-0.4501	 0.0430	 7.7037	-11.3645	-0.4158	-0.0833	-0.6862	-0.0630	
   863	-0.2275	 0.1539	-0.0004	 0.0000	-0.4857	-0.0862	-1.0840	 0.0391	-0.4373	 0.0241	12.2084	-18.0095	-0.4302	-0.0922	-0.6934	-0.0675	
   864	-0.3775	 0.2085	-0.0004	 0.0000	-0.5129	-0.0763	-1.0712	 0.0203	-0.4582	 0.0246	12.2084	-18.0095	-0.4511	-0.0917	-0.7006	-0.0720	
   865	-0.5090	 0.2208	-0.0004	 0.0000	-0.5474	-0.0709	-1.0712	 0.0203	-0.5071	 0.0211	15.4078	-22.7290	-0.4792	-0.0957	-0.7287	-0.0760	
   866	-0.5090	 0.2208	-0.0004	 0.0000	-0.5474	-0.0709	-1.0584	 0.0014	-0.5616	 0.0409	15.4078	-22.7290	-0.5001	-0.0952	-0.7432	-0.0849	
   867	-0.5090	 0.2208	-0.0004	 0.0000	-0.5755	-0.0749	-1.0456	-0.0175	-0.5616	 0.0409	12.2084	-18.0095	-0.5009	-0.1092	-0.7568	-0.0800	
   868	-0.5090	 0.2208	-0.0004	 0.0000	-0.5964	-0.0744	-1.0801	-0.0120	-0.5897	 0.0369	12.2084	-18.0095	-0.5218	-0.1087	-0.7777	-0.0795	
